291
327
324
296
339
303
317
336
300
350
332
314
340
294
321
319
290
334
304
311
351
378
551
439
241
236
233
303
322
290
340
315
320
344
301
341
332
314
349
311
340
353
322
370
350
355
382
346
382
373
333
351
296
302
304
264
304
281
278
310
269
309
307
285
325
286
307
322
282
324
303
297
328
285
317
316
292
332
296
314
330
286
333
314
306
341
304
342
347
310
350
311
318
335
295
337
323
311
364
379
531
490
244
240
258
307
342
301
345
337
320
359
321
347
355
321
364
336
344
373
338
384
380
367
410
375
397
409
357
379
332
314
330
281
315
311
288
327
293
313
330
295
338
314
309
341
296
334
328
302
343
309
322
341
299
346
323
318
353
310
341
343
314
356
323
335
356
317
362
352
345
368
323
349
347
313
357
327
335
361
354
490
556
364
264
230
306
344
315
359
337
344
364
322
359
350
334
370
333
359
373
343
388
367
373
407
365
405
396
364
389
332
331
328
285
323
298
295
323
281
319
318
294
338
300
317
329
289
331
307
303
332
288
320
317
294
333
302
314
329
292
332
317
311
352
315
340
338
304
338
306
314
335
297
334
332
379
548
465
290
225
227
314
307
317
341
305
342
329
314
347
311
334
346
316
356
336
343
374
338
385
378
363
399
357
362
354
303
326
289
290
312
276
316
311
288
328
291
315
328
285
317
270
226
210
95
39
0
0
0
0
0
0
0
0
0
0
0
0
9
153
183
289
272
344
382
356
433
397
428
473
414
487
490
539
658
612
415
402
400
508
475
471
516
449
510
489
455
537
476
524
548
492
578
537
560
610
540
600
577
544
609
538
559
551
474
523
480
477
526
472
532
526
499
565
491
517
538
459
526
473
446
487
385
438
433
399
480
424
454
491
425
515
487
472
514
411
424
385
298
359
262
236
231
136
201
185
170
223
160
249
342
414
388
170
186
281
256
342
320
305
376
324
372
397
356
431
382
390
438
376
450
438
421
488
420
449
454
387
429
351
315
311
203
233
192
151
205
144
183
209
162
245
229
243
312
262
333
343
325
402
355
390
413
348
409
362
346
383
307
344
325
266
310
248
270
296
246
313
290
319
469
519
403
254
199
301
284
304
331
270
334
308
286
335
270
310
319
279
349
313
331
373
313
373
354
330
377
309
329
319
247
294
238
238
272
206
265
250
225
289
229
271
291
242
315
272
271
308
241
303
290
262
322
263
296
323
272
348
315
306
352
277
327
317
278
338
282
305
343
345
538
488
264
238
217
312
332
296
366
315
340
372
305
372
341
327
373
314
364
370
329
402
362
380
416
358
419
384
347
380
302
325
322
269
326
278
285
320
256
315
300
281
339
283
322
332
282
341
299
308
345
281
340
324
294
350
287
320
332
278
344
302
303
349
292
351
338
299
352
291
316
334
274
339
302
299
379
394
564
417
192
262
256
311
341
286
355
329
322
370
301
346
345
302
366
322
341
376
320
388
371
358
417
357
402
396
332
374
304
299
323
257
310
288
267
323
264
304
317
273
336
293
301
344
279
338
324
294
347
287
321
333
280
344
302
301
337
270
323
311
283
338
279
312
332
279
350
318
324
371
308
356
343
303
360
301
327
355
295
365
378
473
574
309
240
270
274
361
310
335
364
310
378
346
330
380
320
368
374
340
411
363
385
420
360
423
401
384
432
362
389
373
304
359
301
308
337
274
337
318
292
351
292
331
346
297
360
318
322
361
295
348
332
301
357
295
328
344
288
355
314
313
358
291
342
338
305
377
315
336
357
290
352
312
310
358
292
345
347
364
559
502
324
261
224
332
327
316
369
307
362
358
314
376
324
341
375
316
387
367
353
409
352
399
406
359
425
373
372
388
305
349
313
281
334
265
306
316
269
334
291
302
338
275
334
320
293
347
286
318
328
270
334
289
290
326
263
320
309
276
334
273
307
327
282
350
307
297
339
273
320
314
280
343
287
324
399
460
544
294
193
276
256
332
330
296
359
309
328
353
293
358
329
316
372
313
366
374
338
407
364
384
414
352
411
374
336
368
288
316
317
264
327
280
292
328
268
328
312
290
342
280
316
330
282
347
304
312
346
282
337
322
295
350
289
321
334
278
342
304
303
347
281
338
331
300
363
314
344
364
307
366
327
316
358
296
350
344
318
431
489
538
335
183
292
301
309
360
300
349
353
312
370
320
334
362
305
373
350
341
393
335
385
396
353
420
374
386
411
325
364
324
290
337
272
309
320
272
339
295
304
343
282
341
325
299
355
296
331
341
288
348
308
305
351
295
357
348
319
376
323
349
366
310
370
333
332
375
314
368
364
331
390
337
371
395
332
394
357
346
387
321
369
365
322
399
404
557
520
252
267
280
309
374
312
360
370
325
385
333
346
377
314
380
360
346
401
343
391
404
357
421
380
389
421
346
391
349
306
347
281
310
324
273
339
297
299
344
280
339
326
298
354
296
330
347
294
355
315
313
354
291
346
334
300
364
306
334
357
295
361
329
330
382
315
365
357
313
368
313
334
363
301
369
383
488
587
324
264
267
269
366
320
340
370
310
370
347
326
376
313
361
367
324
394
351
365
406
348
412
392
372
420
346
366
359
285
334
281
278
318
250
308
297
270
326
270
300
318
262
326
285
282
324
258
312
301
266
324
266
294
314
254
321
291
292
344
278
322
316
271
329
274
297
322
263
330
337
420
564
327
227
234
239
334
288
309
343
285
347
321
300
349
287
330
342
306
377
338
357
398
343
406
386
364
417
347
365
351
281
329
277
282
317
253
311
300
274
335
282
319
333
280
341
303
302
341
278
334
324
288
345
288
314
335
280
345
308
301
344
280
336
333
304
368
317
332
355
294
353
323
317
365
304
353
390
434
586
354
218
273
258
347
324
314
366
306
347
354
307
369
317
331
366
312
374
361
346
408
353
399
409
361
423
373
361
372
289
329
302
271
323
265
305
321
274
337
298
300
340
276
332
321
289
347
291
320
340
281
348
310
306
349
287
338
332
293
351
295
313
336
280
342
314
312
364
305
348
342
296
350
297
314
343
284
354
364
451
566
313
227
252
254
347
306
320
358
302
364
343
317
370
312
357
367
325
398
354
366
410
353
413
400
375
430
363
379
371
296
343
292
289
329
268
322
318
290
352
294
325
345
292
357
322
314
358
289
338
331
292
350
293
318
342
283
348
319
310
365
303
347
342
289
350
298
318
352
293
360
346
384
577
483
326
253
231
337
315
330
364
305
365
345
324
375
315
358
372
326
394
353
362
405
345
403
389
362
418
354
374
372
297
346
299
289
330
267
322
315
282
342
287
315
336
284
344
314
305
348
287
333
330
289
348
292
315
340
278
343
318
309
361
290
333
331
279
341
290
305
336
274
345
372
474
547
277
224
254
254
344
303
317
355
295
354
336
306
361
300
337
355
313
384
349
361
407
349
407
395
365
414
342
352
350
278
327
286
280
318
257
307
299
266
326
275
299
322
266
332
299
291
340
278
324
322
283
341
289
307
335
276
336
310
297
350
295
340
344
293
351
299
305
340
280
341
322
302
392
416
564
414
181
260
267
308
347
290
352
338
310
367
310
343
359
307
374
339
343
387
332
392
388
363
423
372
397
406
330
366
311
290
326
261
309
306
269
331
281
299
329
274
333
305
292
339
279
325
326
283
344
299
314
345
286
341
320
302
353
292
332
340
292
356
314
322
365
309
364
340
314
360
299
331
346
294
360
324
357
480
519
418
237
207
317
300
335
357
307
371
338
333
375
310
358
354
323
387
340
369
400
347
414
392
380
430
368
406
389
328
368
303
308
334
269
322
299
282
337
276
318
327
284
347
302
310
347
282
341
318
295
345
286
324
335
283
344
306
307
350
294
358
342
305
355
293
319
335
282
347
311
306
371
385
567
446
233
258
243
310
357
299
364
334
323
371
311
357
358
315
381
337
357
393
338
407
388
373
426
370
410
408
345
387
322
319
342
275
326
310
282
340
283
318
333
281
344
304
306
347
285
341
329
297
352
292
317
336
279
344
309
302
348
282
332
329
295
364
315
330
354
291
349
317
302
350
291
336
340
343
511
532
355
246
205
311
323
307
363
306
348
357
306
365
319
325
363
307
368
357
334
395
344
383
404
355
419
378
364
383
299
332
308
272
319
266
288
313
258
322
291
285
333
270
320
315
280
335
287
308
330
273
330
303
287
337
275
318
320
274
333
290
302
331
272
330
312
291
344
285
322
335
291
360
324
328
360
294
344
327
299
355
301
331
356
363
540
518
277
236
224
323
336
305
363
318
343
364
306
366
337
326
373
316
363
370
334
400
357
382
417
363
424
399
372
400
317
337
330
275
332
287
296
331
270
329
313
291
343
286
322
334
286
346
308
307
344
284
336
324
294
348
294
320
342
287
346
316
308
353
294
337
338
302
358
306
327
353
298
367
342
329
376
310
343
346
299
362
318
326
367
354
528
536
308
254
226
310
346
303
367
330
335
371
313
363
350
319
377
328
362
386
337
404
373
374
426
364
419
410
365
404
332
332
343
277
333
302
289
335
273
319
326
286
348
306
319
352
296
354
333
311
363
302
332
343
289
349
307
312
349
288
344
328
295
352
297
335
355
300
361
316
309
347
289
344
336
304
372
378
539
540
278
260
253
287
361
305
353
358
317
376
330
342
372
314
372
352
337
395
339
382
395
353
416
372
380
413
338
373
340
297
338
276
303
319
265
327
294
296
340
280
334
327
295
353
302
321
344
283
343
317
300
346
281
323
327
284
344
301
311
346
296
352
331
310
355
293
326
337
287
350
308
320
410
453
558
339
190
276
268
324
345
296
359
326
320
359
299
343
344
309
369
322
348
376
325
389
370
360
409
352
393
385
322
358
296
294
318
252
309
290
267
320
268
302
316
270
330
294
298
335
270
322
311
280
336
280
306
325
272
332
302
294
337
276
327
320
286
339
288
311
338
285
354
329
311
359
295
326
328
284
348
303
315
356
350
514
528
292
240
230
311
343
298
361
326
332
368
310
360
349
320
374
324
356
376
330
395
373
374
421
371
420
415
367
404
334
332
342
278
331
303
287
335
277
322
329
287
348
306
317
345
288
344
325
301
355
297
330
344
292
352
316
318
355
293
344
334
304
356
304
331
354
300
363
335
340
382
317
364
354
307
361
314
332
361
302
365
384
488
572
310
245
270
270
356
319
328
367
308
366
345
319
370
318
351
368
324
392
363
364
410
355
409
405
373
431
365
376
379
304
352
316
298
342
279
324
327
285
346
299
308
343
280
341
320
303
355
294
331
341
291
351
310
314
350
290
343
330
302
359
304
344
363
299
356
315
306
345
283
333
328
291
367
384
542
507
242
240
249
274
345
282
327
337
291
353
307
317
350
291
351
337
319
376
325
370
388
342
408
371
371
404
326
362
335
290
337
274
296
315
259
323
292
283
330
271
317
317
278
335
286
303
329
272
332
305
291
337
278
320
326
279
340
300
308
340
282
338
326
301
365
310
341
354
299
353
313
312
351
291
342
346
368
548
493
297
237
221
326
316
308
356
298
348
347
304
364
315
329
361
305
367
351
337
393
344
389
403
355
417
378
367
387
305
342
317
282
331
273
301
320
266
331
298
293
339
280
328
324
290
343
294
314
338
282
340
313
297
346
286
326
330
287
345
300
312
342
286
341
325
304
354
300
335
347
300
360
325
326
367
316
366
350
318
366
311
330
351
299
361
331
341
454
517
511
281
206
313
303
331
363
309
370
347
330
377
318
357
366
320
381
343
352
390
337
397
390
370
425
374
403
407
336
376
320
304
338
274
317
312
280
337
289
313
336
280
339
311
297
345
285
327
330
287
344
297
308
339
279
336
317
298
346
290
328
340
293
353
313
316
354
294
350
339
307
361
310
338
370
317
372
342
330
364
302
346
344
309
364
324
390
548
490
345
229
247
337
299
341
349
310
369
326
337
366
306
364
350
330
386
336
373
391
346
415
379
383
426
365
413
384
334
371
306
321
338
279
340
312
303
349
291
339
335
297
359
307
322
352
292
352
326
306
358
296
333
344
295
356
311
317
350
288
344
329
306
368
311
339
351
293
350
312
307
353
292
340
348
378
583
469
294
253
226
330
320
308
359
299
347
348
303
364
312
327
364
304
366
348
330
390
335
373
389
341
405
359
350
368
289
329
306
272
326
266
297
318
266
330
299
294
343
280
327
325
286
345
293
312
338
279
335
307
290
338
279
323
325
282
346
306
317
358
296
345
326
297
347
286
318
334
285
346
334
405
576
422
272
224
236
330
291
321
346
295
356
326
317
362
301
347
350
313
378
334
354
389
340
401
382
369
413
352
377
362
297
337
287
287
318
258
311
301
279
330
279
313
329
278
335
301
299
340
277
326
323
289
343
295
316
339
285
341
313
298
344
286
329
332
290
351
307
320
354
304
361
336
314
356
295
326
334
288
345
310
330
432
500
506
263
195
298
285
321
342
298
359
329
328
368
310
354
354
320
376
330
352
381
330
390
375
364
416
358
397
389
326
362
300
298
322
262
314
296
277
327
272
309
324
273
336
300
299
336
279
329
322
292
345
293
320
335
283
341
314
306
348
291
337
334
296
352
310
326
353
298
358
340
333
380
320
354
354
304
356
315
324
357
298
367
406
509
532
261
235
293
286
361
325
329
371
315
363
354
319
375
326
349
375
321
388
362
358
408
356
402
407
368
424
367
357
370
292
334
306
284
331
274
311
321
279
338
298
305
342
281
334
324
298
350
296
326
342
286
346
311
307
347
287
336
335
298
352
302
323
346
293
359
344
332
377
317
354
349
303
366
322
334
365
308
410
520
527
379
217
268
319
298
364
328
330
368
307
358
347
316
373
320
351
371
322
389
358
357
405
344
396
393
355
406
341
339
349
278
331
301
284
334
278
318
327
287
348
303
314
348
285
342
321
298
352
292
327
340
286
348
308
310
349
290
354
342
305
359
297
316
332
278
339
312
302
351
328
485
563
341
270
219
279
342
290
350
326
315
363
307
343
351
305
366
323
336
373
320
372
365
347
405
351
383
397
338
382
324
307
332
264
313
305
270
327
278
305
327
275
336
308
299
343
281
327
324
286
343
294
309
336
276
334
314
293
344
291
333
347
302
360
316
315
345
282
336
320
298
350
302
378
489
513
379
204
237
318
286
338
335
307
364
315
338
359
306
366
335
332
376
323
372
378
345
410
368
387
414
354
400
358
317
348
278
308
311
264
321
283
292
327
272
326
313
290
340
290
318
333
283
341
305
304
341
284
333
325
292
347
296
316
339
283
338
313
301
345
291
339
346
314
373
320
334
355
297
345
329
311
357
306
362
433
516
494
240
227
307
293
351
340
320
371
320
347
357
311
371
337
336
377
328
375
374
348
407
366
391
415
360
417
375
345
363
291
324
319
277
332
286
300
332
277
333
314
299
349
293
329
337
291
348
307
313
348
288
339
328
304
353
300
327
345
294
354
320
318
359
301
350
347
321
383
333
346
366
305
360
330
319
364
304
349
385
446
590
360
245
272
255
347
331
314
366
309
346
356
311
367
327
333
370
311
371
362
339
396
345
383
399
351
409
364
345
367
289
327
313
274
328
276
303
324
272
336
311
297
344
284
332
332
292
347
301
315
343
284
341
314
298
349
291
330
336
290
352
314
330
366
302
352
330
300
349
294
323
339
285
352
358
470
566
308
239
246
260
344
295
324
344
293
353
329
321
358
304
350
350
317
379
338
359
390
341
403
382
367
411
344
363
349
288
335
286
292
321
261
319
303
282
333
282
317
329
280
339
303
302
336
278
330
320
290
342
292
317
336
283
342
311
301
344
285
331
328
293
349
303
321
348
293
349
323
312
358
306
352
356
308
365
315
322
349
293
347
331
310
388
408
568
463
206
261
270
308
348
296
348
341
314
365
313
339
355
308
366
338
338
379
330
382
382
356
414
370
392
408
343
375
328
299
332
273
307
310
271
329
288
299
330
277
332
314
295
343
290
322
330
287
338
302
306
339
283
334
321
293
343
296
323
336
288
342
308
308
344
292
337
331
300
352
306
327
345
296
350
325
314
357
306
356
358
319
369
321
330
354
299
353
331
313
367
360
510
553
306
253
249
301
356
305
360
348
323
374
321
350
362
315
376
344
348
387
335
389
386
362
421
371
397
419
359
401
351
322
351
281
322
318
282
336
290
308
337
285
340
321
307
351
295
335
337
296
354
311
321
351
294
349
333
311
361
305
337
348
303
354
314
317
351
294
346
335
307
362
314
350
368
316
370
331
320
356
298
348
344
308
377
391
558
519
264
259
260
293
358
300
345
348
312
367
321
332
361
305
361
340
327
381
326
370
381
341
404
365
377
406
337
376
339
294
331
270
296
306
259
319
288
289
330
270
320
314
283
339
289
311
332
280
341
306
299
340
282
326
323
288
342
296
314
337
283
341
315
303
347
296
341
353
314
364
317
323
345
287
341
324
305
349
321
435
576
429
282
212
261
335
291
342
335
310
362
313
338
353
306
362
332
333
375
321
371
370
346
405
358
382
409
355
400
353
325
345
277
310
309
271
324
282
299
329
278
330
313
296
342
291
328
331
289
346
303
312
338
286
335
319
297
343
293
320
334
290
343
309
311
344
292
341
333
303
354
306
331
349
301
352
323
324
365
316
361
349
316
361
310
325
350
300
354
336
373
512
532
372
230
231
327
311
324
357
308
357
339
322
367
313
347
355
315
371
339
348
385
338
390
385
369
416
371
396
397
332
363
313
301
329
273
322
312
285
335
290
311
336
286
341
316
309
347
293
335
332
296
347
305
319
345
292
347
323
310
353
303
337
344
306
360
319
329
358
305
358
342
320
372
317
352
365
320
383
354
354
382
321
365
351
321
371
322
349
369
370
555
542
333
271
237
327
347
319
374
331
354
371
321
372
348
339
380
330
372
381
348
407
367
386
421
368
428
407
383
419
343
362
351
298
348
304
315
348
291
345
331
308
359
305
335
349
300
356
317
319
355
295
341
333
303
354
303
329
347
293
352
321
314
357
299
349
354
322
376
325
338
356
297
353
330
317
361
305
383
492
539
405
226
234
304
286
344
326
310
357
305
338
346
304
357
322
333
369
315
372
361
343
398
350
381
397
348
400
352
328
346
276
314
301
267
319
274
296
321
270
328
302
294
337
278
319
321
283
335
293
307
332
278
331
311
296
340
287
324
332
291
343
304
314
346
297
353
348
329
372
319
346
350
300
353
319
324
356
316
421
533
511
332
196
267
324
298
353
328
328
367
314
357
352
319
375
331
351
374
327
385
364
358
407
361
404
410
368
414
355
345
354
288
331
307
289
331
279
316
324
283
340
307
308
338
285
331
320
295
341
293
321
332
289
343
311
309
347
293
341
334
304
353
311
329
350
305
359
331
323
365
316
367
367
326
378
328
336
355
306
359
338
328
397
417
583
481
236
269
277
324
363
314
368
357
335
384
333
363
375
332
391
359
362
402
352
406
402
381
436
390
418
428
370
406
355
332
355
297
335
329
299
351
310
329
351
304
358
331
320
363
307
348
348
310
364
319
330
355
301
356
334
318
366
308
346
351
309
365
325
333
364
312
376
365
340
387
329
348
363
319
371
341
336
384
381
572
520
292
270
247
312
356
305
366
336
330
373
313
354
353
315
373
327
347
378
328
389
370
358
408
358
396
398
346
386
321
312
331
268
318
301
276
330
279
317
325
282
340
303
309
344
285
337
325
297
349
293
318
337
286
343
311
301
344
286
333
328
297
360
314
329
348
290
339
310
298
344
286
325
337
351
536
500
305
236
206
308
311
299
350
299
337
343
298
353
315
322
356
302
355
347
330
383
341
372
389
343
397
358
348
365
290
321
302
265
310
263
289
305
257
315
290
283
323
270
310
308
275
325
280
296
318
264
319
296
282
323
270
308
311
272
325
287
294
324
273
326
312
292
346
304
343
357
307
360
320
321
352
299
346
336
315
397
431
575
443
207
266
281
310
356
306
352
351
320
370
328
344
368
320
371
352
344
388
340
386
394
365
423
385
399
420
354
384
342
308
342
284
316
323
281
336
303
309
338
290
336
325
302
346
300
323
337
292
345
312
312
345
294
338
333
305
351
308
330
347
300
347
321
316
350
303
342
342
309
357
315
332
354
305
353
334
327
369
326
365
360
320
367
323
329
358
308
358
343
366
511
533
376
242
224
325
318
325
362
309
358
345
322
368
320
343
364
318
373
348
353
394
345
393
392
366
417
373
390
396
325
359
314
292
328
272
310
311
274
332
293
306
336
281
337
318
301
345
294
331
332
291
347
308
314
348
290
340
330
305
356
303
332
345
296
353
321
319
355
298
350
348
324
381
325
346
358
302
357
327
322
362
304
379
461
541
450
240
234
298
284
352
331
318
368
313
352
353
310
367
329
338
374
322
380
365
349
405
354
388
401
356
409
360
340
355
280
320
303
272
321
273
300
318
270
330
300
296
335
278
322
317
280
337
288
307
330
275
332
305
293
339
281
322
326
285
341
296
308
338
286
340
333
317
357
301
331
333
287
342
307
309
342
304
423
544
459
290
184
257
312
286
342
311
313
350
297
341
332
307
355
309
334
357
314
372
351
350
397
347
394
393
357
396
329
324
328
263
309
285
269
312
262
300
307
272
328
291
306
334
283
332
317
297
339
290
322
327
288
338
305
305
338
287
334
322
299
342
296
321
337
293
344
314
315
349
300
339
338
308
357
319
344
370
318
363
336
320
352
298
339
340
307
367
393
527
546
257
228
260
291
348
305
340
347
310
363
329
334
366
317
365
356
334
379
340
374
392
359
415
389
391
423
368
392
365
315
343
289
308
324
278
331
306
298
339
290
331
329
296
344
304
317
339
290
339
318
304
343
293
328
333
295
348
309
315
344
294
345
331
309
354
305
332
345
303
354
321
322
358
308
358
352
325
365
314
328
340
290
342
315
310
353
348
519
526
291
249
227
293
343
293
348
327
318
360
313
348
354
317
374
335
350
385
332
390
380
367
413
364
400
411
363
406
351
335
350
285
329
314
289
338
291
320
337
287
346
314
309
348
291
335
330
295
347
297
317
339
283
342
314
302
344
291
333
329
292
348
307
327
358
297
345
320
297
335
285
320
328
283
362
400
546
472
228
238
264
283
349
301
330
347
300
357
322
323
360
304
352
350
325
377
339
366
392
348
406
381
377
410
345
360
342
291
328
278
289
311
261
311
293
279
322
272
307
312
276
327
290
297
326
273
321
308
286
330
281
308
324
282
334
303
303
339
287
332
321
296
343
304
328
355
311
354
328
316
346
296
334
334
300
351
338
431
582
408
251
222
259
334
297
330
344
307
356
322
328
356
307
356
342
327
374
331
362
382
347
405
379
382
419
368
394
366
320
344
291
308
321
274
324
302
295
333
286
325
327
298
345
305
319
341
290
336
317
302
340
293
327
333
296
342
308
317
342
294
341
328
309
350
307
334
346
304
350
325
325
356
307
351
349
334
375
328
347
358
309
354
329
325
356
310
380
459
544
443
214
239
308
295
348
328
319
357
314
346
351
317
364
331
341
371
325
375
367
356
401
363
395
408
370
419
373
356
366
297
330
313
285
331
285
310
328
285
338
312
307
343
295
336
335
304
352
308
323
347
298
349
325
311
353
299
338
339
300
354
312
323
351
295
352
336
318
363
313
347
359
321
382
350
352
378
318
363
351
322
372
324
346
403
460
581
353
235
268
256
339
336
310
362
318
339
360
306
362
336
323
372
322
364
372
337
399
363
379
408
356
408
386
354
379
304
324
320
270
326
287
293
328
276
327
314
290
341
289
317
333
282
338
307
301
337
279
328
321
288
342
293
313
336
281
341
320
318
361
302
336
334
291
342
301
315
344
286
354
391
513
531
268
225
264
264
342
310
319
349
298
349
336
309
358
309
334
354
308
364
339
342
384
338
385
382
352
396
338
337
336
269
309
278
263
301
251
288
294
265
316
281
293
323
274
326
308
291
331
281
314
323
280
335
301
303
335
284
330
319
294
338
293
319
335
296
355
331
328
353
301
335
330
297
346
308
321
353
360
517
543
319
238
233
314
339
305
357
324
337
362
310
359
344
326
368
324
357
367
333
387
362
372
409
364
408
403
372
397
328
334
333
278
323
295
292
329
281
322
321
294
341
302
316
338
290
336
312
301
337
289
321
323
290
336
300
311
333
287
330
316
301
341
295
328
333
295
342
310
316
345
298
342
332
309
350
309
338
360
319
364
337
326
352
302
338
334
306
350
336
420
571
441
269
226
265
339
305
340
347
318
364
330
339
366
318
363
350
335
380
340
371
390
356
410
385
389
422
375
406
380
336
360
304
319
335
287
336
310
307
343
293
335
333
303
351
312
329
351
300
349
330
315
354
304
339
343
302
355
320
328
355
303
349
337
315
358
312
341
352
309
362
332
333
376
324
366
356
321
361
313
336
353
304
357
343
393
575
452
305
244
239
333
314
330
354
307
359
338
324
368
317
351
357
319
377
339
348
385
336
391
382
363
410
360
379
376
312
349
305
293
326
270
315
309
282
337
291
312
336
284
338
313
299
338
286
326
326
286
339
298
309
336
285
336
315
298
344
297
336
350
312
358
317
318
344
288
336
324
302
346
317
414
567
438
293
212
248
290
337
334
310
355
311
334
347
303
354
327
326
363
318
365
368
346
400
362
382
404
353
390
347
317
338
277
311
308
268
318
281
291
316
269
318
305
289
328
277
305
317
276
321
292
294
324
273
317
308
284
328
286
307
323
281
325
303
298
331
285
326
325
298
343
310
327
357
312
355
334
316
348
300
329
337
301
345
335
413
573
463
276
226
250
331
303
332
345
312
357
329
327
356
309
351
343
324
368
332
357
378
345
397
383
381
418
367
394
375
321
348
295
301
318
272
318
301
290
330
285
320
327
291
340
303
314
336
289
331
318
302
342
300
321
333
289
338
310
308
339
292
332
323
299
341
302
320
339
296
341
319
311
343
301
336
336
306
349
312
322
348
307
360
341
323
360
310
335
337
304
350
318
323
376
400
575
471
239
254
257
318
345
309
359
334
335
365
319
361
356
328
376
339
362
383
342
396
378
375
416
371
409
407
366
396
335
330
340
282
324
307
290
333
286
320
327
287
342
309
314
347
293
343
328
303
352
305
328
337
293
346
317
312
349
297
339
335
305
355
309
328
346
298
351
330
321
364
317
365
366
323
372
326
337
354
308
360
339
319
388
410
580
476
254
266
264
311
356
303
356
348
323
371
323
349
364
318
373
343
343
383
332
384
385
360
411
370
387
409
349
382
336
310
335
274
309
307
272
323
284
297
328
276
329
312
294
335
285
315
325
283
333
299
300
332
278
327
314
290
337
290
312
329
284
336
310
306
343
292
332
332
304
354
325
347
360
311
354
327
315
349
299
335
337
315
424
517
526
328
193
273
299
307
350
305
338
349
308
356
325
326
360
313
358
353
332
382
344
372
395
356
409
381
375
403
335
352
329
279
320
272
284
304
255
305
285
277
317
272
311
314
278
329
291
298
325
274
322
308
289
330
285
312
325
286
335
305
308
338
289
336
326
302
348
306
327
343
299
349
323
324
366
315
345
341
306
349
302
323
343
296
349
373
457
584
351
229
252
263
344
312
324
355
307
353
341
322
364
319
348
360
323
377
347
355
395
353
400
398
376
422
377
382
379
313
344
305
295
328
276
314
312
287
334
296
315
335
288
338
318
307
346
299
330
336
300
352
311
320
351
297
350
335
317
363
313
343
352
311
363
331
333
366
315
358
352
330
379
338
366
382
330
376
344
329
368
312
357
352
324
425
514
556
365
211
284
304
319
363
313
352
356
318
371
328
337
366
313
368
351
334
385
340
378
391
349
409
372
373
404
336
365
333
290
330
274
297
314
265
324
294
293
332
280
326
322
286
337
291
310
331
279
332
306
297
339
284
325
326
285
342
300
311
340
285
338
324
312
364
315
345
350
300
349
308
313
347
291
337
347
396
583
443
270
232
224
319
304
305
343
292
340
334
304
357
311
334
356
309
364
341
337
382
335
381
389
355
406
364
369
376
305
340
307
285
323
271
304
309
267
319
286
294
323
268
317
304
280
322
273
298
313
267
318
288
287
320
272
316
308
281
325
283
303
322
276
326
304
297
336
292
341
344
309
350
311
321
339
290
341
324
310
360
373
527
541
277
237
245
300
343
298
343
334
317
357
313
338
350
311
359
330
334
366
324
369
369
353
402
367
388
408
358
392
345
317
336
278
312
308
277
322
284
302
321
282
329
311
299
338
291
325
326
295
341
303
313
337
292
335
320
304
341
298
323
336
300
347
317
321
347
304
346
335
312
354
317
339
349
312
364
344
340
368
318
350
336
307
350
313
331
352
334
445
550
455
273
206
290
331
309
353
320
334
359
312
355
338
329
363
324
355
364
331
381
353
366
400
359
408
398
381
412
351
358
344
293
332
297
299
328
280
326
320
298
342
301
327
339
293
344
317
312
344
296
338
339
306
352
311
330
350
300
355
331
321
357
308
348
350
319
366
327
340
365
316
369
357
347
380
328
357
355
310
362
327
334
358
330
460
575
428
308
221
289
338
311
364
332
339
370
317
365
355
331
381
332
361
377
331
391
362
365
407
357
404
396
364
411
344
344
349
282
333
300
293
331
277
319
325
285
343
299
311
338
281
333
305
293
338
279
318
325
284
337
298
309
343
295
349
333
306
349
289
320
334
286
347
313
311
386
436
595
398
231
269
252
314
342
294
357
327
321
362
301
349
349
313
369
325
348
375
323
387
367
355
404
346
386
382
329
365
302
302
323
259
312
290
273
324
272
309
320
281
338
295
306
335
279
328
314
290
338
284
317
326
281
340
308
318
357
300
344
327
293
339
289
318
335
286
352
378
492
565
296
237
259
269
344
303
323
345
298
351
321
306
349
293
335
339
306
362
327
346
378
336
392
374
361
401
342
355
341
285
325
278
286
311
259
309
294
274
325
277
312
326
283
338
305
306
339
282
328
318
291
340
295
320
335
292
343
314
310
346
294
338
336
313
364
322
336
351
301
347
320
309
348
299
334
352
381
558
487
266
234
234
323
317
308
351
306
341
342
309
361
321
331
360
312
360
349
337
385
342
383
394
360
414
379
372
383
314
340
317
286
326
281
307
320
279
331
304
303
337
289
331
324
298
341
300
319
336
290
341
317
311
344
297
338
334
304
347
307
323
343
298
346
324
311
353
302
338
340
305
356
319
337
366
318
357
338
318
353
305
332
339
302
360
368
471
571
327
240
256
281
350
306
340
353
311
364
328
329
362
315
358
353
329
381
340
367
387
347
404
382
377
414
358
388
363
313
344
291
304
322
274
328
305
299
339
288
331
332
299
349
311
326
347
297
346
325
312
356
301
340
343
305
360
319
330
358
305
351
341
321
369
322
356
377
334
389
349
346
372
314
364
350
326
376
326
394
533
525
380
244
253
336
304
356
350
323
374
325
349
367
316
368
339
339
378
325
376
376
346
402
359
383
406
353
401
360
332
355
284
318
314
274
328
285
300
329
277
331
310
293
338
283
316
324
279
335
296
301
333
279
332
315
295
341
288
321
331
285
346
320
325
354
296
338
319
291
339
291
321
335
289
385
461
542
385
198
249
284
290
344
302
328
349
303
357
328
322
361
303
342
339
308
361
322
347
375
333
388
366
358
391
322
342
324
276
319
271
285
310
262
312
296
281
326
278
313
322
282
334
296
305
333
281
332
316
299
341
294
324
333
290
342
309
313
343
292
336
327
303
348
305
335
357
314
363
330
326
345
297
336
337
310
353
321
398
530
507
331
208
253
328
299
342
341
316
363
326
341
363
316
365
344
336
372
328
366
374
344
398
367
384
409
361
400
368
333
348
286
312
311
274
322
287
295
323
276
325
311
295
338
291
323
331
292
337
309
310
337
288
329
322
297
343
300
325
336
297
346
320
314
348
301
341
335
309
353
316
332
345
307
354
331
324
356
312
351
350
328
375
333
344
357
312
355
333
326
364
315
374
436
534
520
258
237
299
294
353
337
326
367
318
352
357
318
367
334
342
371
325
375
364
351
400
358
391
403
366
418
377
365
377
304
337
315
286
331
282
312
324
282
338
307
308
344
292
339
331
303
350
305
325
345
296
351
324
321
357
303
347
344
311
361
312
333
352
300
356
335
331
373
317
355
348
306
355
312
327
352
299
354
376
486
561
307
246
259
261
345
310
325
355
301
354
336
317
364
313
346
358
319
376
341
355
391
338
397
385
365
414
353
371
364
301
339
295
293
325
268
321
310
283
331
284
312
326
278
334
301
298
334
280
325
316
288
338
291
311
330
281
334
306
299
340
284
327
334
302
347
303
313
333
280
332
311
302
341
302
397
530
476
313
193
243
312
281
335
320
307
348
301
333
340
300
352
320
327
358
311
364
354
341
392
347
382
392
352
394
345
326
339
275
312
301
275
320
273
304
317
278
329
303
303
337
285
326
320
290
338
294
313
330
284
337
313
305
341
293
331
327
299
345
305
320
340
294
344
321
312
351
309
353
357
319
362
321
327
346
302
349
331
318
386
409
569
458
219
263
275
319
351
305
354
341
325
365
320
348
356
321
367
337
345
377
333
381
377
364
409
369
399
410
359
389
339
320
336
283
319
310
284
330
293
314
331
290
337
313
310
343
292
330
327
301
342
305
323
341
295
342
318
309
347
298
332
333
299
345
307
324
343
299
346
326
313
353
304
337
343
310
366
333
344
360
305
345
328
311
352
306
337
351
365
547
503
304
252
234
326
334
314
363
321
345
359
315
372
339
338
374
323
373
368
345
399
357
387
409
360
421
390
382
407
337
360
339
300
342
292
313
332
285
342
316
306
347
295
336
333
299
349
306
322
343
292
346
320
310
352
296
335
337
297
349
310
320
348
299
356
346
331
368
311
341
342
299
353
316
322
353
315
440
561
435
303
208
272
322
294
353
321
324
357
306
353
343
322
368
319
345
364
322
377
347
354
392
343
392
386
356
395
333
337
336
274
323
289
281
321
266
310
308
278
330
286
303
325
270
320
292
280
318
269
304
308
272
323
283
296
323
275
316
295
280
322
275
320
322
279
327
283
288
314
264
315
301
284
346
366
533
472
224
230
240
285
329
282
331
321
303
350
303
332
342
303
351
328
331
363
320
369
370
353
400
360
384
396
345
373
328
307
324
271
308
304
274
321
284
304
325
284
334
312
305
339
289
327
326
293
338
300
311
334
289
335
316
306
341
296
330
333
299
344
310
319
347
301
347
330
315
354
310
339
351
320
369
339
340
358
312
346
329
312
348
308
340
401
464
566
326
208
274
273
334
328
313
353
318
342
355
316
362
339
336
368
324
362
365
345
390
362
382
403
366
412
387
366
376
313
326
314
280
325
289
304
326
285
330
314
304
338
295
328
330
296
341
307
315
339
294
337
322
306
342
301
333
338
303
348
314
320
346
301
345
334
318
358
315
342
350
309
358
331
332
361
318
367
358
331
373
321
338
354
310
359
331
328
381
404
582
464
250
264
264
326
358
316
371
350
341
376
327
366
365
336
387
347
368
390
345
402
385
377
423
373
412
415
369
404
341
337
349
285
330
312
293
339
290
327
336
293
347
310
318
349
295
347
329
306
352
298
327
341
294
346
314
316
347
290
337
328
302
351
303
329
346
302
364
339
332
366
303
345
336
306
356
312
331
353
344
509
550
348
267
214
298
330
301
356
311
327
355
301
351
332
320
363
309
351
358
322
377
345
358
393
340
396
379
355
386
317
330
324
270
318
281
285
318
267
316
306
283
329
282
311
322
276
328
294
292
322
270
315
309
282
330
282
300
318
271
322
296
291
327
277
318
317
286
338
301
330
351
299
345
320
306
336
287
324
324
293
356
383
529
518
244
227
253
285
336
296
331
341
309
353
323
329
356
313
357
346
330
374
334
366
379
353
404
377
383
408
356
378
346
306
330
284
300
315
273
319
294
296
328
286
324
320
298
334
299
314
331
291
332
314
305
337
294
327
330
300
342
307
320
340
297
339
322
312
345
305
332
337
308
349
318
328
351
309
350
338
323
364
330
360
359
321
358
322
321
346
303
343
338
361
483
536
389
233
222
314
313
316
346
305
345
338
317
357
319
339
355
316
362
343
344
379
342
383
385
365
409
375
393
400
340
360
322
298
326
277
311
312
284
327
298
308
334
293
336
320
305
339
298
327
329
295
342
310
316
344
300
341
332
315
348
309
334
342
307
348
322
324
351
302
345
335
311
354
314
339
352
318
368
351
349
326
362
352
326
370
332
355
370
373
540
552
351
276
243
323
346
324
372
328
349
368
320
368
344
335
370
322
364
363
333
385
353
373
402
355
410
388
373
401
334
351
334
283
330
287
296
326
275
326
310
292
339
289
321
328
284
337
302
308
340
285
336
324
297
346
299
325
339
295
347
316
314
351
306
360
351
313
358
307
325
340
294
347
321
309
365
388
571
469
250
251
240
300
339
290
343
324
311
353
301
338
343
307
358
321
335
365
320
374
364
351
396
352
386
389
341
371
318
306
318
263
304
292
274
319
275
303
317
279
330
300
302
331
282
322
307
276
318
274
296
311
268
318
293
288
324
278
316
314
285
329
296
318
345
302
343
320
308
337
292
328
332
303
346
334
417
570
461
287
224
257
335
305
337
345
316
360
328
335
356
315
358
346
331
371
336
363
377
346
397
374
379
408
364
395
365
324
342
288
302
313
273
319
296
294
325
284
321
319
293
337
300
314
332
288
332
312
304
336
290
324
323
296
335
302
316
336
294
335
319
309
342
296
330
334
303
347
313
323
349
308
360
346
326
358
314
335
340
305
351
326
328
384
413
578
453
228
262
271
330
350
314
360
337
337
365
321
357
354
331
373
338
359
379
344
394
377
380
415
374
413
411
374
395
339
333
334
286
326
305
295
331
288
323
328
300
343
311
320
345
299
339
324
311
346
303
334
334
299
345
313
322
349
304
352
337
321
362
317
342
353
316
369
344
349
376
327
364
349
319
363
321
343
355
321
427
540
502
335
214
281
317
312
361
320
340
358
315
363
339
331
369
319
359
361
333
387
350
369
397
353
406
385
373
407
341
356
340
291
335
292
299
324
275
327
312
293
340
288
320
329
288
338
301
305
336
283
329
317
292
338
293
318
331
286
337
310
312
354
305
344
334
299
341
293
313
331
287
336
317
363
534
483
314
226
221
313
298
320
341
299
350
330
319
356
311
344
350
319
364
335
351
376
337
389
378
368
407
362
377
359
300
325
282
280
301
255
297
287
268
310
274
301
314
277
323
294
294
321
277
314
308
286
324
289
307
322
281
326
304
302
330
287
323
323
296
338
307
327
353
314
348
328
314
341
298
330
333
305
346
343
434
581
414
250
229
266
340
306
337
346
316
358
328
335
358
316
358
349
333
373
336
367
383
352
403
382
386
416
369
399
367
324
346
295
309
319
282
324
300
298
330
285
327
325
301
341
304
321
336
295
337
316
308
337
298
331
330
300
343
309
321
343
300
345
327
314
348
308
337
343
308
352
325
334
368
326
361
349
327
356
312
337
348
313
358
343
407
571
486
306
236
258
338
317
337
353
314
360
337
332
363
318
357
351
328
374
341
366
388
355
407
388
386
423
373
406
388
333
359
308
313
331
279
327
309
298
338
293
327
334
298
346
311
320
343
294
339
322
305
346
298
328
337
298
349
316
321
350
297
347
339
319
370
322
343
350
300
344
313
313
348
294
335
349
406
587
407
262
245
237
327
315
311
351
303
347
343
315
362
321
340
362
318
368
351
348
393
349
391
397
366
417
372
372
376
310
342
313
289
326
277
312
319
283
337
304
309
339
290
336
321
299
343
296
321
333
291
337
310
310
335
288
331
323
299
346
311
337
350
302
340
308
298
326
280
319
318
291
357
394
544
451
207
227
252
284
328
290
326
329
301
341
309
321
343
301
347
335
323
362
326
360
374
348
398
368
377
398
340
361
327
292
319
274
296
305
270
318
290
293
323
284
325
316
298
339
299
320
331
293
336
312
308
337
294
329
325
299
340
302
318
334
296
340
322
310
342
302
339
347
324
365
326
332
347
298
339
323
313
350
310
381
473
535
406
204
235
308
295
339
330
318
355
315
340
350
314
362
336
342
370
327
374
370
356
403
370
398
416
377
418
380
356
362
302
325
317
290
330
294
312
327
287
332
313
306
337
295
329
330
296
337
303
316
339
296
339
323
312
345
305
338
341
310
353
319
325
350
304
347
336
319
359
322
355
367
330
368
336
331
351
306
343
336
314
360
359
489
575
346
263
248
293
354
315
357
355
332
373
331
350
367
323
371
346
343
379
339
378
387
360
411
375
394
419
366
403
359
325
349
291
318
319
282
333
297
310
338
289
337
323
303
347
300
327
334
292
342
307
311
341
287
334
321
297
343
299
322
336
291
345
326
325
355
300
338
326
294
338
297
316
337
291
372
456
540
394
205
238
277
282
339
299
316
340
293
339
322
310
350
302
336
348
313
369
336
354
385
341
391
380
365
399
339
348
340
284
326
286
284
315
268
314
305
284
329
285
308
322
281
328
302
297
328
282
320
318
291
325
283
298
316
276
323
300
291
329
286
323
333
306
344
308
314
333
287
329
311
298
335
298
373
480
530
379
199
231
299
288
335
327
313
352
313
337
349
314
357
332
332
364
325
366
367
350
398
365
391
407
369
411
369
344
352
293
314
309
281
320
285
300
320
283
328
308
301
334
290
323
326
293
334
300
311
332
285
329
317
301
338
296
324
333
300
343
313
318
342
297
338
327
307
347
310
335
354
320
367
333
330
353
304
340
337
314
355
318
385
494
534
386
215
244
320
304
342
346
318
363
329
343
365
324
366
349
340
378
336
373
384
354
406
379
394
419
377
417
390
351
366
307
323
322
286
327
299
302
329
291
332
326
304
345
305
328
339
300
342
315
314
343
297
332
326
304
346
308
327
344
303
344
323
316
348
302
337
336
309
352
320
345
365
318
360
336
321
352
310
342
349
313
373
408
555
498
262
253
275
298
358
318
349
363
324
373
345
344
373
324
367
362
343
391
352
374
399
358
411
390
386
422
360
388
366
318
349
296
312
329
281
332
309
300
344
289
326
326
288
335
295
307
332
280
331
312
295
335
287
320
326
288
338
305
310
345
303
352
333
310
348
296
319
336
295
345
315
326
419
514
513
301
204
278
276
320
340
295
347
323
315
350
302
340
342
307
360
322
341
367
324
375
362
357
395
352
380
379
326
357
302
293
311
260
305
292
272
316
276
305
317
280
326
298
300
327
284
320
316
293
335
295
313
328
287
333
308
306
338
297
335
332
296
335
293
302
320
276
321
304
292
348
377
543
479
233
233
243
295
334
292
336
325
313
348
306
334
342
310
354
327
333
362
324
370
368
355
400
363
387
400
347
374
329
304
324
271
309
303
278
323
285
303
324
285
330
311
304
337
291
324
326
297
338
305
314
336
292
337
318
307
341
300
329
333
298
343
316
322
354
316
360
342
320
353
308
328
340
304
349
325
360
476
534
416
230
219
310
302
325
345
308
355
334
329
361
316
352
353
323
368
335
353
378
340
393
382
372
412
371
399
391
338
362
312
306
324
276
317
306
287
328
290
314
327
290
333
307
306
336
290
329
321
297
339
301
316
334
294
338
316
311
346
300
335
336
307
349
317
330
350
310
354
341
332
370
328
352
352
312
350
320
328
354
309
362
406
519
533
277
235
286
293
358
331
335
366
324
365
357
331
374
337
356
374
335
383
364
361
398
357
397
396
375
416
375
374
375
311
341
312
299
333
286
324
327
297
348
312
322
349
299
347
332
314
353
308
333
343
303
353
320
321
353
299
343
334
311
360
324
349
358
309
354
321
312
349
299
340
337
312
414
511
506
326
200
274
295
310
351
306
344
348
312
361
322
334
362
312
366
350
335
380
341
377
389
351
406
373
375
399
333
358
329
291
327
278
303
316
274
326
299
298
334
283
325
321
288
331
289
306
325
279
328
304
295
332
283
319
322
292
346
315
328
350
299
341
318
299
337
288
317
324
290
377
455
529
365
194
252
282
293
332
295
320
333
296
339
317
314
343
301
338
340
318
365
334
355
379
342
388
373
365
391
334
345
328
286
321
283
290
315
273
317
305
292
332
292
318
326
288
329
300
302
325
282
323
314
294
333
295
316
329
292
338
314
308
341
300
338
339
321
362
321
335
348
300
342
325
313
349
308
371
451
538
450
220
235
303
295
340
331
320
356
314
344
351
318
363
334
338
369
329
372
367
354
399
367
393
408
374
417
379
356
365
301
326
317
285
329
292
309
330
289
336
318
310
344
301
332
333
300
342
310
319
340
299
344
328
313
350
308
334
341
302
349
321
325
350
306
347
337
317
354
318
347
360
325
363
334
325
353
307
344
342
315
366
378
528
538
286
248
261
297
349
309
345
350
322
364
331
341
362
321
368
355
345
386
346
376
388
357
408
377
385
415
360
393
363
323
349
295
317
327
284
338
310
309
344
299
339
332
304
349
303
321
339
293
339
316
308
341
295
329
330
297
345
309
324
350
309
360
342
320
356
300
328
335
295
347
312
318
386
442
573
372
225
266
258
322
343
305
358
330
328
363
314
355
349
322
371
334
358
377
334
387
368
364
400
352
392
386
337
367
307
305
320
269
311
294
281
323
276
311
319
282
330
295
297
321
272
312
299
279
320
278
301
314
274
315
290
288
317
274
317
321
302
341
301
314
322
280
322
302
294
330
291
368
470
519
374
195
226
294
283
334
321
310
347
306
335
342
312
355
326
334
362
322
368
362
350
396
362
386
401
364
402
361
339
346
286
314
306
278
317
282
304
321
284
331
314
307
341
293
327
326
294
338
302
312
335
289
334
316
302
337
298
328
334
299
344
316
323
344
302
345
329
313
350
311
342
358
324
361
330
323
349
301
340
333
312
357
364
479
563
327
236
246
289
349
307
345
345
316
360
325
335
358
315
359
343
334
372
334
372
384
354
406
378
389
416
368
393
360
320
343
291
308
316
279
324
297
302
333
290
332
328
302
341
303
320
335
293
338
314
309
337
294
330
325
298
341
308
320
340
296
340
322
311
351
306
339
347
323
373
337
340
359
310
350
336
320
362
317
353
416
507
547
316
234
286
282
349
345
325
369
331
351
366
322
373
347
343
380
334
377
381
352
410
372
390
415
369
416
390
362
379
312
331
326
283
335
296
306
335
285
337
319
300
341
293
321
330
288
335
301
302
334
287
328
319
295
337
292
318
334
290
343
326
325
356
306
336
328
297
336
296
307
329
287
367
446
528
390
200
229
276
281
330
301
312
337
297
336
326
310
347
307
332
347
316
363
341
351
386
346
390
384
363
400
343
343
339
283
318
290
283
314
271
311
314
285
333
299
314
336
288
332
314
298
334
290
321
327
292
337
302
311
334
291
332
318
302
341
300
327
341
310
360
334
327
353
303
337
327
303
345
306
328
377
416
577
408
211
253
258
330
336
310
356
323
335
358
315
359
343
331
365
327
361
369
340
391
365
378
408
368
411
399
366
384
317
328
325
281
324
296
297
327
283
322
320
297
338
298
319
331
292
336
312
308
338
292
327
325
298
341
304
318
338
296
340
322
312
343
301
335
339
306
351
318
329
356
316
366
352
330
364
315
338
342
307
352
324
332
395
454
574
374
223
271
275
328
347
313
361
335
334
365
320
360
357
335
382
344
366
389
351
401
388
381
419
376
415
408
366
396
340
331
342
287
331
316
293
338
294
323
334
297
348
316
318
345
291
337
326
301
347
302
325
341
296
346
319
311
348
295
336
328
305
358
326
345
358
306
350
317
308
342
292
332
329
315
436
531
458
292
192
275
300
303
342
297
332
340
305
352
320
325
353
307
356
346
330
377
338
365
379
341
387
365
359
381
319
338
314
277
308
267
286
302
260
309
287
283
315
274
309
307
278
318
282
294
317
273
318
299
286
322
280
313
318
288
332
302
310
336
296
340
340
323
356
310
332
335
296
341
315
315
344
317
428
550
458
287
205
270
324
300
346
328
325
358
312
347
347
321
362
327
344
364
327
375
362
359
402
363
397
404
371
406
356
340
344
287
323
307
286
325
285
315
326
290
340
311
311
341
296
335
325
302
340
298
317
332
291
335
314
308
341
298
335
334
305
347
311
326
339
298
344
329
327
363
318
346
346
309
349
316
327
348
304
363
406
513
530
269
234
284
292
349
323
331
361
320
358
353
331
371
334
354
372
335
381
360
364
398
359
399
399
372
417
372
372
369
305
336
306
292
323
282
316
319
291
336
303
316
339
295
338
324
308
342
300
326
334
297
343
312
318
345
299
344
329
309
351
307
332
349
308
366
340
336
365
313
349
340
313
357
318
335
368
393
578
463
282
262
248
328
344
313
364
327
337
362
311
359
339
325
365
318
354
366
332
385
353
366
395
350
398
383
354
381
315
326
325
274
323
293
293
327
279
324
320
292
340
294
315
331
283
334
306
299
335
283
321
318
289
334
294
309
334
290
346
327
308
342
290
317
323
287
335
300
307
354
379
561
449
246
243
238
304
330
292
341
318
316
346
302
341
333
314
356
323
347
366
328
377
358
356
391
349
385
381
342
364
308
308
314
263
307
288
276
315
276
311
316
287
330
298
308
329
285
327
314
297
333
290
314
323
288
333
305
308
336
292
332
328
310
358
318
336
347
303
341
313
312
342
297
334
348
382
549
478
278
235
237
321
317
310
346
305
338
344
312
356
323
333
357
315
361
351
343
384
347
381
396
363
410
378
376
382
315
339
318
290
325
286
310
321
284
329
306
304
337
294
330
324
298
338
297
315
331
290
337
313
306
340
295
328
330
303
345
307
321
342
295
340
321
308
344
302
335
345
322
366
330
335
353
303
344
335
317
355
318
374
464
536
437
238
244
316
304
350
346
327
368
330
350
365
326
373
347
347
379
339
379
382
362
406
376
395
417
374
415
385
354
369
310
331
329
290
335
302
317
341
301
346
333
318
356
307
339
344
307
354
322
323
349
300
342
333
308
354
307
333
342
299
347
319
320
306
358
352
326
367
318
339
349
302
351
325
318
351
333
467
568
377
286
219
277
332
294
347
325
317
355
305
345
342
310
360
321
335
365
317
373
356
345
393
344
380
387
344
385
333
320
332
270
312
299
280
323
281
309
323
282
333
300
301
330
280
320
311
286
332
288
308
324
279
330
307
301
336
283
325
327
302
354
318
328
347
296
336
315
305
340
295
328
354
390
574
451
266
245
239
321
322
308
348
310
334
345
310
353
327
330
359
315
357
355
338
378
344
368
387
346
394
368
352
365
303
322
307
274
315
276
292
312
271
318
302
294
329
284
318
318
287
330
294
304
327
281
327
311
296
331
290
318
325
289
333
307
308
336
289
335
323
306
344
305
333
349
316
361
328
324
348
299
335
332
308
347
317
380
484
532
396
215
238
316
296
334
337
312
355
322
332
356
313
354
341
330
367
327
360
373
344
397
370
384
414
370
411
381
342
359
298
314
319
279
325
297
301
330
288
327
321
299
338
296
316
330
288
333
308
302
334
287
323
323
298
340
305
318
336
295
339
318
308
342
297
331
335
304
346
316
328
351
311
361
351
332
362
318
339
347
308
351
324
328
367
373
541
529
294
254
254
320
348
313
362
338
335
367
323
360
361
337
377
341
361
380
343
392
374
373
412
370
408
408
375
401
349
340
343
291
326
307
294
331
292
325
330
298
343
315
318
344
301
341
330
307
347
306
328
341
301
348
321
321
347
303
342
334
312
361
326
347
363
314
357
332
320
353
308
347
341
321
418
519
514
339
207
274
296
308
347
304
337
345
308
352
318
329
353
306
353
343
327
376
334
365
380
345
398
369
372
392
330
356
328
292
327
281
301
317
276
325
302
297
333
285
323
319
289
332
293
306
326
284
329
309
300
333
289
324
326
300
351
324
326
343
294
329
312
296
333
292
318
329
340
502
521
331
243
216
296
317
299
341
306
327
342
305
349
326
326
355
312
352
352
331
377
346
369
394
352
401
379
364
381
317
330
319
279
318
283
290
306
265
310
299
284
321
278
308
311
275
319
287
292
317
272
314
306
285
326
287
310
321
285
329
304
303
340
304
343
338
307
346
301
316
331
292
338
317
319
404
476
537
314
194
282
287
318
340
300
346
332
319
357
315
343
350
319
368
340
347
378
339
388
384
370
412
372
397
400
344
367
321
304
328
276
313
309
287
330
294
313
333
290
338
316
308
341
294
330
328
297
337
304
315
334
293
336
319
308
347
302
334
338
305
346
317
325
354
311
361
351
328
365
320
339
345
306
353
329
329
374
390
567
510
284
267
266
326
358
317
366
345
341
370
326
360
359
333
374
342
355
380
341
391
380
374
414
371
403
407
365
392
341
333
344
292
332
321
301
340
303
329
342
304
348
323
319
346
300
339
331
305
346
306
324
340
299
343
323
316
346
301
339
343
321
365
326
328
345
294
338
320
307
341
298
351
429
532
479
265
223
283
277
338
328
313
353
309
336
347
308
355
327
330
359
319
359
357
341
387
352
375
396
352
393
359
330
346
285
308
303
268
311
283
296
321
278
322
307
295
329
285
315
317
284
327
295
302
326
279
321
309
293
332
292
316
327
287
339
322
322
349
300
332
322
290
331
293
314
328
301
400
502
506
326
186
258
297
289
335
305
317
341
299
343
328
314
351
309
340
349
317
365
339
354
385
344
390
378
359
390
333
335
330
277
316
286
283
317
272
315
313
289
334
296
312
332
285
332
308
300
332
287
324
323
294
336
303
314
339
293
336
322
309
344
302
331
337
304
343
320
325
354
316
359
346
324
358
311
330
340
302
347
321
336
425
506
522
283
205
298
301
329
350
314
359
338
330
361
317
354
354
327
372
341
357
381
344
393
384
379
418
377
407
404
352
375
325
313
331
286
323
312
297
333
296
320
335
297
345
319
320
347
300
339
332
309
349
315
331
348
306
352
330
324
354
309
344
342
315
356
318
332
352
308
356
338
326
363
323
358
366
327
369
333
333
354
309
354
344
319
374
401
569
490
267
260
266
305
346
305
343
339
313
353
318
331
347
307
351
330
323
359
313
350
352
324
366
330
341
361
305
327
289
251
265
206
229
222
176
208
154
146
162
107
144
125
101
138
93
121
132
98
147
121
130
164
124
174
172
158
206
171
199
222
192
249
241
242
275
230
270
268
241
289
260
282
304
287
408
533
436
281
194
271
313
299
351
324
337
365
326
370
358
342
385
346
374
388
357
406
384
394
427
388
430
423
402
431
371
375
370
320
360
334
330
359
315
356
355
329
370
334
348
367
321
366
344
334
367
325
352
355
323
367
334
342
364
321
363
351
332
371
329
354
362
330
378
354
359
381
331
366
350
325
366
326
348
362
346
460
566
481
291
223
307
340
323
367
332
346
368
325
371
352
338
375
332
367
372
343
392
365
380
409
369
415
401
384
412
347
353
342
292
330
296
299
324
283
324
314
296
338
299
324
336
294
341
315
310
339
292
329
328
302
344
306
323
341
298
344
326
315
347
305
339
339
306
354
321
330
352
308
353
342
329
372
331
355
360
316
358
326
328
351
304
350
370
433
580
382
235
256
266
341
318
318
350
305
347
345
315
358
320
338
358
314
367
352
346
390
356
383
387
368
420
385
395
424
296
333
313
296
337
284
324
330
299
355
312
321
350
295
339
330
304
345
297
328
340
300
356
327
324
350
304
357
356
334
405
326
377
361
332
406
391
413
401
359
402
396
388
421
439
351
391
369
361
384
396
534
597
425
272
263
263
310
332
307
267
295
284
240
270
196
253
237
191
264
271
196
226
165
204
186
210
248
156
249
201
60
157
116
107
123
96
168
189
89
152
158
161
173
175
192
208
180
196
204
239
217
218
229
248
240
252
229
263
284
266
319
260
334
309
310
307
280
291
300
299
347
328
376
548
555
367
271
255
343
340
385
350
334
327
357
361
379
353
410
360
403
399
359
401
410
412
437
415
414
434
401
435
420
358
419
359
317
378
328
349
365
316
373
343
347
366
299
314
322
302
345
306
315
327
277
326
280
283
308
256
312
296
272
308
256
283
272
249
293
280
288
326
381
565
519
295
243
264
312
315
292
343
350
344
358
346
354
344
351
370
365
389
384
392
402
399
404
413
405
426
432
396
375
332
338
328
315
334
315
341
309
289
327
335
323
362
339
351
364
335
365
342
333
354
327
326
337
320
356
321
318
326
302
317
298
292
319
296
311
370
452
579
370
214
254
258
320
324
302
340
324
334
347
311
330
325
314
348
321
349
356
328
373
336
368
354
337
380
366
341
355
306
318
317
291
311
303
292
322
308
337
325
312
343
312
327
328
303
334
309
305
332
298
337
322
301
344
322
309
330
306
343
331
319
331
305
326
313
300
337
307
345
418
515
495
272
229
302
294
321
324
297
335
321
306
343
294
321
317
296
332
311
327
335
311
348
351
331
360
331
351
342
311
324
278
291
267
237
283
258
260
292
268
292
293
290
292
262
283
306
278
314
311
295
321
272
305
321
298
341
326
337
363
348
368
355
330
361
329
348
363
347
359
374
419
587
506
348
272
288
346
356
372
381
359
391
366
367
394
370
383
397
373
414
383
409
427
401
433
429
419
451
418
430
415
379
405
370
390
399
369
409
406
401
417
405
422
415
392
415
390
398
407
385
419
407
411
420
416
439
428
399
385
363
370
379
360
381
367
414
540
556
376
264
246
301
302
310
319
294
328
300
293
320
279
296
298
280
306
304
302
320
308
327
325
333
340
316
326
318
283
285
273
260
282
272
284
294
289
316
320
340
333
335
369
344
345
380
358
375
377
362
382
397
397
389
381
375
352
379
372
351
384
366
427
528
612
439
276
309
342
357
372
353
438
403
336
391
386
365
386
354
355
369
337
356
341
337
350
334
412
346
282
337
297
279
269
211
216
190
164
188
154
164
175
170
191
170
180
207
197
200
221
192
213
202
219
241
226
256
252
254
280
243
249
237
202
226
207
223
243
230
319
456
460
274
117
187
247
249
272
263
266
285
266
284
286
281
316
279
290
322
298
326
336
348
392
347
336
359
359
376
340
348
346
293
317
323
320
349
300
313
332
322
346
336
332
350
324
323
330
333
352
335
341
352
337
365
358
340
364
354
372
384
390
404
372
360
360
326
351
343
356
374
336
470
594
436
281
250
298
352
315
336
334
332
354
340
356
345
349
382
347
354
384
359
379
374
373
402
386
399
413
355
375
345
330
330
299
311
308
295
318
289
316
317
300
321
309
311
329
302
346
303
299
323
305
314
326
307
331
336
300
329
318
333
343
343
369
347
341
323
301
325
303
304
326
310
381
519
523
325
218
246
306
303
319
322
313
341
312
321
335
309
337
331
339
361
330
345
358
351
378
356
369
387
369
372
347
318
315
284
296
301
276
288
276
282
299
281
305
305
295
297
274
298
299
285
308
287
295
310
275
312
305
280
313
291
311
331
315
343
339
349
367
331
337
314
295
321
302
311
332
389
567
511
263
222
240
298
318
315
345
327
311
334
316
340
333
333
354
343
354
352
343
372
358
376
391
362
388
377
363
371
332
330
335
302
311
301
311
333
308
341
318
301
328
290
304
312
289
320
286
282
296
268
293
295
285
306
281
301
312
264
308
311
316
336
306
340
339
327
337
300
296
313
295
312
308
334
445
548
425
241
210
282
299
313
324
302
334
334
318
346
325
337
351
336
359
357
355
381
363
388
389
381
408
394
407
416
369
366
344
334
342
328
333
344
336
353
338
337
356
330
354
341
336
361
329
348
351
329
352
347
335
355
329
345
356
342
346
342
344
356
337
369
363
358
371
321
327
321
308
336
316
318
381
493
556
330
214
256
274
318
331
326
332
321
330
346
338
367
348
338
370
353
369
392
375
404
406
390
410
396
405
412
390
401
341
333
338
316
334
328
338
364
307
323
337
322
343
324
335
334
311
331
321
318
333
319
325
318
310
333
326
322
334
325
363
339
315
352
345
359
356
320
326
298
304
304
281
302
373
522
475
253
210
243
259
307
301
306
322
317
311
330
314
340
318
330
342
330
360
357
360
374
357
377
388
369
403
387
344
348
316
326
303
298
314
286
301
315
300
314
295
295
305
289
310
295
295
307
283
309
304
301
331
318
327
362
325
352
336
306
314
299
309
318
287
318
358
507
502
273
225
246
270
303
280
297
316
294
316
320
312
325
311
334
327
317
356
337
354
371
360
384
364
366
392
350
351
342
310
324
296
304
323
295
313
312
300
326
298
313
325
304
320
308
314
327
305
306
317
318
341
332
354
353
343
339
312
292
318
289
311
309
326
425
538
424
274
211
271
305
312
337
325
334
344
319
340
329
333
354
337
364
363
345
369
349
366
378
363
386
386
366
375
320
325
305
291
311
285
304
316
279
318
292
296
315
291
308
308
297
318
288
308
318
291
314
317
314
340
335
357
359
339
336
299
293
313
291
314
306
338
462
536
384
227
214
270
288
303
321
302
328
331
307
330
313
326
341
326
354
351
345
375
353
367
375
369
391
366
381
376
329
328
311
313
325
299
297
334
283
320
296
309
308
296
306
303
289
317
306
277
309
291
301
295
299
327
303
322
340
344
349
329
312
308
290
304
296
289
314
297
396
539
431
242
193
259
283
280
309
282
283
308
283
302
314
302
322
306
323
338
323
361
355
373
397
366
372
396
381
391
363
360
361
340
335
319
319
347
329
354
369
352
349
339
340
359
332
342
338
328
337
315
329
335
320
339
325
308
327
311
340
336
341
379
340
337
330
300
323
310
311
331
317
390
498
531
348
231
270
322
324
348
336
325
357
339
353
368
356
372
361
366
380
360
381
388
384
408
391
406
409
401
406
360
360
351
316
328
334
310
338
314
314
329
310
339
325
318
335
308
339
340
312
338
325
331
341
326
336
337
320
345
315
335
362
319
348
360
354
368
350
315
314
314
322
309
315
361
421
563
390
268
257
264
318
349
311
332
326
324
338
333
338
313
310
334
319
334
334
324
338
322
334
347
329
351
331
324
320
278
293
292
273
298
269
292
295
285
307
295
297
316
297
310
305
294
316
309
302
323
306
335
331
334
358
348
377
396
360
348
328
325
350
327
342
346
363
454
564
442
284
246
302
322
336
346
317
337
336
321
345
335
327
348
324
347
339
347
371
346
368
379
362
387
372
369
370
329
333
311
280
303
287
302
303
284
312
291
284
302
273
288
271
270
280
265
270
286
276
302
287
294
331
308
313
301
277
292
275
294
287
276
304
350
501
495
289
228
240
272
322
302
327
345
320
337
333
332
351
330
351
360
363
386
353
360
388
371
395
400
385
400
373
362
354
312
326
310
312
334
305
323
320
316
337
313
312
339
314
326
317
320
332
302
333
330
330
357
345
349
364
325
334
303
315
327
300
322
328
381
553
480
283
246
256
311
316
322
339
325
327
336
326
355
329
331
365
342
353
358
360
377
360
375
380
374
394
364
354
357
302
314
310
293
322
295
306
322
280
312
303
303
318
296
318
323
297
312
293
308
318
299
331
324
328
340
327
349
342
311
325
299
295
312
285
312
321
391
556
454
263
222
238
297
295
304
325
308
335
313
312
327
314
329
340
330
355
347
348
373
352
378
375
372
405
374
366
362
316
326
312
295
315
295
323
320
313
340
310
317
329
312
336
323
318
342
315
323
322
308
330
320
319
340
325
337
330
325
348
332
360
377
360
379
335
323
329
309
327
332
319
394
493
571
375
219
273
286
309
336
314
326
332
318
336
319
324
333
328
343
336
336
360
344
365
376
369
398
364
377
386
342
342
316
306
315
281
301
306
296
320
301
315
310
289
315
309
299
316
292
313
313
294
320
300
296
317
295
312
320
315
338
315
339
342
329
352
342
346
372
350
389
413
361
385
352
349
359
340
360
342
353
420
506
585
367
241
286
311
331
342
338
342
334
332
353
324
344
348
338
367
335
349
377
354
373
377
373
407
382
390
388
354
351
312
294
312
287
303
308
295
308
288
300
312
298
321
305
309
314
288
303
297
295
316
299
301
319
302
316
304
307
330
309
322
321
313
331
314
315
334
320
338
335
331
353
335
363
361
341
347
317
313
333
309
340
339
375
522
556
335
237
263
320
331
324
339
318
342
347
335
359
341
346
340
329
360
358
362
385
354
381
402
374
392
380
379
378
331
328
309
283
300
280
300
309
295
319
299
285
309
290
312
313
304
327
298
302
299
295
315
304
304
331
301
317
305
290
320
299
317
328
312
325
316
316
336
312
334
326
319
349
333
357
376
352
374
330
310
334
317
332
346
333
435
542
457
298
229
276
312
328
337
312
332
343
321
354
331
333
362
328
346
356
356
371
363
382
387
379
416
378
379
408
342
339
319
296
316
296
290
302
291
299
291
297
321
306
315
307
295
318
293
307
318
305
317
315
306
320
299
321
317
305
337
313
327
347
312
338
355
342
361
327
325
325
304
312
305
307
330
375
537
515
273
236
245
298
311
291
321
313
317
337
321
326
334
320
329
322
340
361
350
368
374
367
385
377
383
387
373
364
319
326
308
284
303
291
286
310
285
303
311
300
325
307
309
322
293
318
310
305
328
308
308
312
308
316
304
307
328
301
324
329
310
343
317
348
364
332
353
319
307
323
296
316
326
322
397
507
534
304
200
264
296
315
325
309
327
341
316
339
314
326
348
331
340
351
332
360
350
371
390
378
406
385
379
381
350
343
323
310
318
289
300
308
296
320
296
312
326
307
328
327
309
329
307
321
330
309
327
317
316
330
301
336
326
313
332
315
321
337
315
340
325
313
350
321
336
353
348
367
348
329
345
298
319
321
307
327
352
485
577
387
228
236
290
327
306
338
336
326
341
328
344
353
339
355
347
355
373
344
365
385
373
405
402
404
422
403
404
367
339
344
312
320
321
312
341
306
307
326
310
328
323
323
341
318
308
317
304
324
311
315
334
298
329
323
304
331
309
322
325
310
334
321
328
330
310
328
331
330
353
332
350
367
339
349
329
322
340
305
316
322
328
425
552
484
271
217
269
290
306
329
304
324
338
323
331
320
322
335
324
337
345
344
354
342
360
371
370
389
377
381
388
339
342
319
305
318
283
291
306
287
312
302
305
323
308
323
317
305
328
308
317
334
317
334
320
326
327
304
325
326
315
342
320
338
344
315
343
335
327
343
325
338
345
344
361
345
374
376
354
356
342
316
335
305
322
336
316
393
491
512
307
200
258
298
294
321
300
323
333
310
338
320
319
338
311
335
339
338
362
337
347
369
359
383
378
374
387
357
337
315
286
303
273
285
305
288
302
300
285
299
288
297
310
293
317
295
302
314
285
303
309
301
330
303
301
318
306
325
316
324
322
316
327
326
317
346
335
356
375
366
371
342
316
335
314
328
336
326
380
441
548
426
224
248
278
313
341
317
347
332
322
347
336
341
366
338
364
363
363
374
363
387
394
393
412
404
410
409
380
367
355
330
335
304
315
324
294
316
312
309
333
307
322
325
297
327
298
311
321
303
313
311
312
314
283
300
319
299
315
305
306
306
293
324
324
326
344
334
342
346
308
316
307
309
320
296
317
368
483
524
298
212
262
284
337
318
321
342
323
349
342
350
364
344
366
371
368
388
384
387
414
396
408
429
419
445
412
410
394
363
373
357
337
360
326
340
355
340
362
355
352
359
333
338
329
330
346
319
331
342
332
347
336
333
355
332
347
321
294
313
284
285
298
282
323
395
506
390
233
207
244
264
303
286
299
323
295
310
303
306
326
308
319
330
303
349
332
334
362
348
374
370
368
368
334
321
317
287
295
274
284
299
292
306
291
286
308
286
294
307
291
304
286
288
301
291
315
314
332
353
316
328
330
286
303
301
294
325
293
304
357
477
517
289
222
265
280
316
310
321
336
328
338
332
329
350
335
346
364
348
374
380
367
403
367
389
399
392
403
384
353
353
309
318
310
297
319
301
319
325
308
337
322
310
338
312
336
340
318
342
327
329
338
328
347
341
362
372
353
345
331
312
332
310
317
323
303
372
481
524
332
205
253
301
299
327
320
316
342
316
339
325
325
343
335
333
355
349
364
364
377
391
374
402
387
383
396
355
344
334
305
322
308
293
316
303
321
319
311
332
305
327
327
304
334
310
314
320
295
319
325
313
335
323
360
353
336
335
317
295
307
295
313
310
298
350
440
502
316
204
233
268
286
313
290
313
324
317
324
308
321
332
315
342
343
334
363
341
365
368
363
390
380
383
390
343
342
321
302
311
297
302
313
299
328
311
326
321
305
328
332
312
321
310
306
323
310
323
316
306
333
303
314
332
317
331
322
337
361
340
362
358
326
333
303
313
326
305
326
324
408
574
479
263
248
275
322
319
323
335
324
345
336
334
362
323
348
362
354
364
365
363
385
375
397
394
398
416
388
390
370
325
331
308
306
317
305
323
307
301
327
300
320
328
314
341
304
311
325
306
317
311
313
333
311
324
324
305
322
319
316
329
318
349
337
345
370
342
348
336
313
318
309
317
326
308
357
441
558
416
207
227
289
294
328
320
323
333
298
327
330
323
344
341
343
346
323
354
359
362
391
384
396
393
383
379
357
348
341
302
316
305
290
318
276
301
309
298
323
309
312
323
292
318
311
302
327
297
314
324
302
326
325
307
344
293
309
319
310
346
327
331
357
354
350
349
326
332
301
324
324
308
331
327
415
560
401
243
233
273
330
307
300
324
315
338
325
332
358
323
333
347
342
362
352
366
391
378
387
378
385
402
381
377
362
310
325
287
291
302
282
307
289
293
290
281
293
282
274
296
282
284
293
266
291
285
273
292
282
296
295
272
310
277
283
310
293
324
315
309
338
321
336
345
304
317
310
305
324
309
305
340
419
549
354
230
253
275
329
321
313
343
325
347
348
340
366
347
352
364
352
387
365
371
402
386
407
419
404
436
392
396
391
352
338
335
335
334
308
327
339
323
347
322
344
354
324
334
339
328
346
309
336
341
323
341
335
320
344
322
337
324
330
357
330
362
374
349
360
331
316
319
307
328
318
305
348
402
536
408
231
240
273
300
326
316
339
343
332
353
333
338
356
331
363
365
359
388
368
370
388
386
403
398
405
407
369
373
358
316
304
293
311
314
299
314
309
318
330
293
319
313
321
346
310
328
354
335
342
319
335
355
325
351
364
345
362
366
378
380
352
342
337
341
351
334
354
358
390
536
546
371
296
277
333
366
366
373
364
375
391
367
390
374
388
392
361
384
382
380
404
384
407
411
393
401
380
372
368
337
331
319
293
332
281
299
316
298
324
299
305
311
296
308
294
286
305
287
300
302
280
319
290
296
317
309
347
335
317
327
297
277
296
281
296
286
291
376
477
451
250
171
235
250
261
277
280
271
273
272
295
275
292
299
293
328
306
312
340
325
355
358
343
376
357
350
357
316
324
303
287
294
280
289
292
288
312
305
321
324
303
327
317
307
320
306
317
337
308
321
314
323
343
342
361
354
343
336
289
311
309
300
323
314
348
467
524
371
216
233
293
300
319
333
320
340
322
328
343
314
338
345
338
362
339
356
364
359
387
375
385
404
377
376
350
324
333
296
299
314
287
311
293
295
315
298
319
321
314
320
316
306
322
295
320
314
298
320
304
330
326
299
333
326
326
346
345
372
357
346
337
308
319
321
307
336
318
367
490
536
339
218
237
299
303
313
327
311
331
321
324
338
315
337
333
333
357
334
346
376
358
377
374
375
394
374
386
365
330
330
293
305
306
302
308
306
303
326
304
323
319
309
337
301
305
324
299
319
318
316
323
289
315
330
294
323
309
314
331
311
329
309
304
330
313
331
345
330
357
345
337
351
309
316
321
305
322
301
314
380
500
518
279
213
279
281
317
322
305
335
318
327
333
318
344
327
322
350
334
344
358
354
374
359
371
383
368
391
368
351
346
303
294
294
281
303
289
302
316
304
315
309
299
323
299
311
316
309
319
301
305
334
299
309
314
317
335
311
311
327
312
330
315
314
336
312
331
335
328
340
336
355
367
332
339
316
310
334
302
319
348
365
513
519
311
239
250
315
335
315
337
322
330
346
325
351
337
347
352
339
362
350
357
380
366
382
394
380
406
390
371
369
339
337
308
301
318
290
307
314
301
321
305
299
321
298
313
317
304
334
297
308
322
295
316
308
309
330
307
321
328
306
327
318
312
327
314
335
343
345
340
350
359
351
333
340
306
312
346
294
311
328
378
543
474
285
233
267
310
305
315
333
313
336
344
320
342
330
332
348
342
360
350
347
379
365
386
394
369
391
384
366
367
329
330
306
302
320
292
318
310
290
327
321
305
325
309
323
318
298
324
306
313
325
312
323
315
301
319
304
318
327
310
348
299
314
340
318
343
340
345
369
353
326
327
303
327
312
321
334
316
387
540
477
287
217
251
306
314
344
327
317
346
316
335
337
332
353
334
352
359
343
370
356
371
391
375
390
394
387
394
357
346
342
308
311
292
293
309
286
304
309
292
312
300
312
327
301
323
322
316
338
320
331
338
325
349
320
330
335
306
329
330
329
343
335
353
364
338
367
343
335
336
310
339
323
301
323
323
385
543
464
280
216
260
319
307
324
329
332
350
337
329
348
334
354
347
347
371
354
369
380
371
396
395
386
399
378
382
366
342
347
309
309
319
309
327
318
321
342
323
335
330
331
348
325
344
346
332
347
325
319
353
338
349
355
350
391
377
382
379
324
330
324
323
339
325
333
371
455
548
348
273
261
281
339
342
335
346
331
352
364
346
379
368
357
389
353
377
380
372
401
376
391
410
374
396
378
356
355
309
314
308
301
324
299
307
325
291
312
300
297
314
287
294
305
287
306
301
305
305
298
336
339
321
333
296
297
315
267
298
284
283
319
357
517
437
258
222
207
268
302
290
309
300
303
330
308
310
314
309
335
319
335
355
346
361
358
363
368
340
364
372
342
338
309
310
308
276
306
296
287
320
297
309
317
307
328
301
305
320
299
307
316
314
347
323
347
360
323
340
306
296
322
294
320
305
304
366
446
535
358
226
239
281
300
317
306
323
333
320
344
315
320
334
324
343
339
343
367
356
367
374
371
389
371
370
380
336
337
324
305
320
289
304
310
294
321
311
314
334
310
320
333
318
328
311
316
328
306
335
331
323
350
352
361
356
335
335
310
306
325
303
325
331
346
457
540
387
241
237
285
310
316
336
310
326
333
323
345
325
344
360
329
362
348
359
379
367
385
384
373
396
381
378
360
318
323
309
294
316
290
301
312
294
318
304
310
320
303
318
313
299
320
295
295
312
302
312
299
301
318
297
304
316
305
332
304
323
344
326
343
353
352
371
347
349
336
323
336
314
320
329
330
439
574
457
257
229
282
322
308
332
325
326
348
320
346
340
337
359
334
355
369
358
377
375
381
399
375
395
403
389
382
341
332
331
296
318
309
305
315
299
319
324
301
334
319
315
335
300
323
321
300
327
301
320
324
310
322
309
314
326
306
329
324
319
339
303
318
325
314
333
324
319
352
332
350
345
344
367
333
327
331
319
315
306
299
331
377
537
533
286
227
259
294
315
302
325
323
320
342
317
338
345
320
351
337
336
363
355
365
374
373
403
370
386
401
369
356
325
321
321
298
301
300
291
308
285
304
322
306
323
309
305
325
300
306
319
307
319
304
316
332
309
318
304
310
328
304
318
329
310
324
309
316
331
313
332
331
313
337
311
328
336
318
347
349
362
376
334
336
326
316
320
311
317
342
377
531
532
290
229
240
294
319
306
343
306
313
340
316
335
332
325
353
342
348
349
345
366
362
370
392
384
404
392
361
365
335
319
324
300
323
310
301
317
292
311
325
322
339
319
329
332
311
315
320
310
326
305
325
326
309
322
307
305
328
308
322
329
314
335
305
322
335
311
330
330
322
345
313
328
328
324
350
333
357
374
356
373
346
324
337
315
332
340
326
359
435
576
460
240
250
280
314
334
325
338
344
321
346
333
342
358
339
363
357
343
375
361
374
382
373
397
388
388
402
356
367
338
307
319
291
297
306
281
299
295
297
318
291
305
314
298
313
288
298
315
296
313
313
300
331
294
306
313
295
320
303
301
314
295
310
307
301
312
292
302
317
301
315
306
315
340
317
343
352
338
353
324
315
315
303
332
316
302
373
466
542
332
212
256
287
312
332
312
312
319
324
340
319
342
345
322
356
326
341
366
351
370
376
382
390
369
383
392
354
353
324
309
327
290
297
314
291
317
301
309
320
306
320
322
296
331
291
309
314
300
319
296
318
331
296
325
311
304
330
311
317
323
316
338
323
327
332
312
318
331
333
360
351
368
380
341
333
321
318
337
316
340
354
369
514
507
308
234
256
316
329
327
348
320
333
344
332
356
333
351
366
346
363
358
364
377
371
393
404
382
403
389
387
380
335
346
323
305
319
292
308
330
317
327
326
305
337
313
326
329
313
347
313
327
332
318
333
330
328
338
308
322
330
312
339
340
323
353
332
361
361
368
393
362
369
360
322
350
340
343
358
343
453
579
405
300
227
279
321
323
337
336
335
348
330
340
349
338
355
334
351
359
339
354
349
349
382
355
372
380
367
382
334
315
323
286
303
304
302
322
309
312
310
310
316
304
307
323
290
322
316
294
320
294
308
329
302
327
323
318
340
336
353
350
340
340
295
306
322
302
326
305
336
461
533
371
231
222
296
304
297
321
308
323
326
321
334
325
344
336
323
352
344
348
367
351
382
382
383
387
357
373
360
324
329
310
301
306
274
297
302
301
319
307
309
330
292
321
314
304
324
299
318
320
313
321
306
319
334
326
357
352
342
346
308
293
308
295
317
304
323
401
528
494
265
201
268
293
304
325
315
333
319
316
344
315
332
339
345
353
339
354
367
348
372
368
378
404
364
373
371
330
324
298
294
308
294
300
297
283
312
302
308
321
318
330
302
311
324
303
327
315
319
325
310
314
321
316
339
332
340
374
347
348
339
321
331
304
319
323
307
328
346
434
576
393
227
240
275
328
309
306
329
314
338
333
334
348
329
348
349
334
352
357
364
386
376
394
386
390
406
363
360
352
322
323
304
315
318
297
307
310
302
338
306
322
345
309
324
320
315
333
312
330
330
311
332
315
307
327
308
332
321
314
338
309
314
318
308
330
322
333
349
328
357
352
338
334
300
308
317
304
322
308
348
480
533
369
214
221
292
298
316
321
307
337
314
316
334
313
327
335
332
359
343
356
364
353
374
373
376
394
380
402
383
351
353
307
317
326
304
322
322
317
327
314
329
329
323
342
327
329
331
316
332
329
315
340
318
334
338
318
321
315
311
334
313
322
332
312
331
314
315
330
320
333
333
340
378
349
338
329
313
333
296
305
326
307
380
492
530
322
197
253
298
301
327
308
319
334
314
328
328
327
347
330
341
354
341
362
361
367
387
368
390
387
376
392
351
343
337
308
308
304
294
315
296
310
311
314
318
301
315
329
306
329
325
318
324
298
312
318
304
328
320
321
337
307
327
316
308
329
325
325
330
319
338
324
325
344
332
356
375
363
379
346
321
337
314
332
329
335
391
494
560
354
223
259
285
323
335
322
333
343
328
341
322
336
345
333
350
336
350
369
350
381
392
385
391
378
381
386
357
356
323
308
312
288
312
310
306
328
305
333
329
306
328
315
309
324
307
325
323
290
329
302
310
335
309
323
310
312
322
306
323
329
308
342
320
339
369
331
360
370
355
361
325
329
327
313
333
306
329
427
553
459
258
224
268
301
316
326
319
342
339
347
339
318
350
345
335
365
354
377
377
346
386
381
383
401
387
391
381
338
343
319
305
319
285
311
310
301
328
314
310
317
304
324
309
319
328
296
323
307
300
315
296
310
322
306
322
318
316
338
307
351
353
331
354
309
311
320
292
310
298
301
375
470
519
321
206
240
271
301
326
295
329
323
317
335
314
327
338
329
351
346
345
356
351
372
374
376
403
374
374
383
350
344
317
314
322
284
306
308
293
324
310
322
326
306
332
321
304
334
310
325
320
307
325
305
308
332
306
324
322
320
340
336
334
331
332
363
347
337
338
299
313
314
310
308
301
357
493
534
327
208
240
292
284
309
315
309
333
320
312
324
320
323
317
337
342
329
346
350
353
381
361
369
383
366
378
349
321
315
289
300
290
285
311
295
299
310
299
330
311
302
331
310
320
313
307
329
308
315
314
301
323
327
313
331
307
319
329
307
327
326
340
345
318
348
365
341
357
323
319
335
307
325
313
296
371
451
552
372
211
253
282
297
321
318
331
321
320
344
324
333
347
341
355
343
354
366
361
385
391
398
401
391
403
398
360
357
331
321
332
311
311
316
311
331
303
322
330
321
347
317
312
335
308
323
327
317
336
307
313
326
311
323
328
316
330
315
323
329
320
339
318
321
339
329
345
342
353
374
352
359
339
315
334
319
311
325
318
388
533
521
314
203
260
309
307
329
328
332
349
332
338
333
329
354
337
351
361
358
370
359
367
393
371
390
397
388
391
346
342
321
282
303
299
293
309
295
295
315
293
310
310
305
316
305
317
306
296
315
299
301
317
303
317
310
314
322
303
315
315
300
326
313
320
335
319
319
319
318
346
332
342
368
355
366
338
320
328
317
331
318
318
368
438
568
414
227
236
274
313
333
317
339
341
324
348
323
337
348
343
361
353
353
383
352
378
383
380
404
383
394
402
355
367
336
320
322
286
306
320
293
318
303
303
321
306
319
315
316
321
294
307
309
290
308
298
300
315
311
307
302
318
325
309
323
330
321
337
318
323
334
325
343
349
340
371
361
369
356
320
330
316
318
332
315
345
389
492
533
292
216
270
305
349
333
331
349
330
350
350
340
363
341
363
362
353
369
375
368
393
377
396
404
384
407
369
365
355
307
312
297
285
305
283
295
309
285
314
296
286
314
290
305
312
284
313
284
291
314
290
309
312
292
312
299
318
314
299
316
310
302
330
316
352
336
341
356
331
339
341
301
326
327
306
320
317
392
549
489
316
215
260
319
318
365
344
331
348
333
364
364
352
374
360
359
380
371
374
379
374
401
387
376
393
379
383
349
332
345
302
309
292
295
323
303
306
328
301
314
304
300
319
294
315
312
302
316
302
285
310
308
326
320
329
370
329
335
299
271
295
276
279
299
279
313
382
523
439
222
199
231
262
306
285
296
313
293
334
312
297
329
317
337
334
339
364
351
362
384
369
393
385
381
390
357
343
339
318
318
300
297
316
302
324
325
307
338
325
319
329
312
335
332
315
341
330
339
334
321
352
356
362
372
332
332
327
312
319
310
317
329
370
521
533
320
230
235
294
311
313
340
320
331
331
321
345
322
334
361
350
360
359
354
370
367
379
398
384
403
397
371
361
318
316
313
304
327
300
308
316
291
320
316
315
337
307
330
330
305
333
312
312
329
314
336
333
326
366
349
354
342
314
319
309
304
321
310
321
350
436
570
387
234
245
265
315
312
314
323
304
328
330
329
349
330
333
356
343
359
364
362
392
370
393
391
368
389
363
348
341
299
316
309
293
290
265
294
310
300
324
310
313
336
307
309
311
305
326
309
316
332
310
338
331
310
334
320
335
351
346
387
367
361
352
320
332
325
318
340
320
333
389
479
575
339
206
254
281
323
329
300
327
311
316
337
324
349
336
338
339
338
351
367
357
385
375
379
399
391
401
363
347
347
310
308
309
284
314
293
292
308
295
311
318
304
321
304
307
312
298
320
308
316
316
296
320
312
299
330
297
314
324
312
328
323
324
348
332
352
350
334
334
301
302
321
303
316
311
352
477
548
369
214
225
288
297
314
327
306
328
324
317
336
317
337
349
336
362
339
362
369
357
390
384
381
402
389
394
376
325
327
304
294
312
296
314
314
300
323
319
311
318
309
335
318
315
340
307
329
320
320
329
313
311
332
316
327
326
324
338
319
331
324
310
338
329
329
352
332
357
352
357
365
343
343
342
310
337
331
310
329
353
501
583
351
231
250
279
315
314
326
320
323
350
314
327
342
325
346
333
353
357
359
377
365
375
407
373
392
398
373
375
333
320
317
294
301
302
285
316
293
306
315
301
325
310
319
331
308
320
313
299
319
294
304
318
296
313
298
304
316
293
321
308
295
311
296
312
321
303
324
328
329
349
334
361
364
335
345
314
316
328
310
322
326
368
476
548
357
220
231
299
311
313
344
296
326
327
322
347
341
352
345
330
337
346
358
381
361
395
389
376
389
364
374
375
334
338
318
313
333
288
315
313
303
325
314
322
339
320
337
318
315
334
317
327
347
299
330
324
322
325
316
322
326
327
350
329
332
361
358
357
336
328
329
295
319
328
307
320
344
465
557
340
240
235
263
316
304
329
336
329
353
341
331
352
320
354
349
353
381
352
371
390
369
397
388
393
402
376
359
345
330
316
290
302
316
301
321
313
317
334
305
321
317
308
335
306
322
338
312
331
311
308
333
315
325
327
306
341
320
331
349
339
365
353
344
347
305
315
328
312
326
293
326
424
554
455
256
225
278
284
312
317
323
337
315
325
347
320
338
350
348
345
340
361
371
366
385
384
387
410
376
382
380
343
345
321
311
309
297
310
296
306
319
298
322
319
308
320
314
320
330
299
314
313
313
314
289
314
316
314
321
298
309
317
302
326
334
345
365
328
332
342
294
312
303
313
325
303
363
479
548
371
211
234
298
311
314
309
311
332
311
327
333
330
354
323
339
356
341
372
369
375
412
373
384
391
385
397
361
344
344
315
310
299
302
321
300
311
324
309
331
322
315
334
321
332
313
312
328
310
317
334
313
329
318
314
332
314
326
323
316
332
320
342
336
328
361
367
335
353
319
315
310
297
322
301
309
374
487
544
318
210
258
262
304
314
303
335
313
322
332
321
336
342
324
353
344
347
360
346
376
368
377
398
377
399
368
339
334
304
308
312
303
303
292
305
314
300
314
314
306
332
314
315
328
310
318
309
302
322
307
329
326
313
332
305
308
337
309
334
335
336
333
323
343
362
365
389
374
357
353
317
333
337
331
353
342
411
569
518
289
225
274
328
327
332
345
335
351
324
336
356
339
349
348
360
364
345
364
375
371
392
387
389
409
371
379
359
324
330
300
309
313
306
303
296
302
321
302
322
324
309
326
314
312
316
306
315
310
316
332
295
320
323
309
323
307
320
330
308
323
323
326
339
328
346
356
349
374
336
326
336
306
326
306
316
338
356
499
529
314
241
226
285
326
305
325
330
333
337
309
328
338
331
358
350
340
366
348
373
373
360
393
371
383
399
357
366
342
306
303
275
293
291
289
310
295
299
295
279
315
292
291
313
289
313
320
286
317
292
291
315
304
330
335
336
350
323
328
324
293
309
303
316
320
280
304
378
522
460
276
227
254
271
319
308
306
319
302
317
329
316
343
332
339
345
326
344
345
351
383
365
386
373
367
381
352
341
338
309
325
326
304
305
288
306
322
313
333
311
328
328
303
322
317
318
326
309
341
334
316
357
345
345
348
325
303
308
296
321
302
312
370
477
550
342
210
245
268
314
325
314
340
339
333
346
327
338
340
340
360
346
377
377
340
373
369
374
390
377
391
371
332
336
299
303
302
290
322
312
293
322
302
318
319
318
338
319
336
327
311
327
322
326
344
330
365
361
342
369
317
322
329
306
326
318
318
355
430
583
430
239
246
261
312
324
301
330
340
330
341
328
332
342
331
360
353
364
383
353
375
380
373
405
382
390
395
347
341
313
301
315
292
305
302
295
323
304
312
323
324
323
303
312
334
310
325
325
313
336
305
327
337
323
358
356
347
369
323
323
312
298
319
303
308
345
401
565
478
263
230
239
291
318
308
326
316
315
328
319
328
340
330
354
325
348
358
349
377
373
377
406
380
393
373
355
344
305
313
320
284
302
305
291
303
289
319
325
300
321
306
310
316
302
331
320
308
303
294
312
320
311
324
308
314
325
296
325
320
320
354
334
350
377
353
371
340
317
329
310
325
328
319
356
430
581
492
236
224
261
301
327
308
331
338
311
330
314
324
344
326
349
347
356
358
345
368
376
375
396
378
399
391
364
341
323
300
314
286
306
310
289
307
293
299
317
288
320
322
299
317
294
302
319
300
316
315
310
308
294
314
320
303
331
305
325
318
302
326
324
328
360
343
358
355
310
324
302
308
329
310
313
335
425
590
454
242
227
263
315
301
325
329
300
342
316
315
333
327
336
349
333
367
344
350
374
360
386
392
387
413
391
373
350
315
314
306
297
321
307
294
307
291
316
302
312
326
308
336
310
300
312
294
307
311
308
328
316
310
316
295
310
310
303
329
317
335
326
312
334
331
339
346
317
324
318
311
305
296
298
327
394
566
487
249
226
247
304
304
307
325
306
324
327
321
333
318
318
344
335
344
357
361
377
358
370
390
376
392
384
360
358
328
304
298
281
295
287
296
316
309
312
313
306
320
299
309
323
316
334
314
313
334
301
320
318
311
335
316
335
335
316
342
323
331
364
345
366
365
314
332
306
313
333
312
340
381
489
569
306
209
261
283
325
324
327
340
320
332
334
333
349
333
344
365
346
371
360
369
387
381
395
402
400
414
369
365
352
308
324
304
292
314
301
313
317
312
341
299
305
330
307
330
317
317
330
306
306
316
305
322
307
314
326
308
331
326
314
333
323
349
359
339
346
317
307
324
294
314
305
311
388
502
519
288
188
265
281
305
312
306
321
319
317
326
318
317
336
322
345
341
338
362
347
369
374
373
398
385
377
373
341
330
303
292
306
273
294
302
293
305
308
311
336
301
324
323
321
332
321
331
335
317
332
322
323
351
325
346
350
328
358
361
387
404
376
393
357
345
372
342
344
363
343
396
492
562
392
265
267
299
328
362
343
362
358
339
361
348
357
375
365
379
371
352
390
361
382
402
389
420
396
390
390
367
348
313
303
318
302
303
312
300
323
300
301
312
303
313
300
297
315
299
296
311
288
304
306
312
316
307
337
342
325
324
290
290
309
278
290
294
308
363
485
481
274
187
249
269
291
309
280
313
302
294
321
307
320
335
320
338
320
331
358
339
364
379
368
392
372
364
357
316
323
293
284
304
279
293
307
282
298
294
301
314
300
325
323
306
328
291
307
313
313
334
319
334
365
333
349
328
314
319
294
303
317
297
320
364
491
545
312
218
247
277
319
315
317
332
331
351
328
318
352
329
352
360
355
374
356
377
388
384
405
396
405
415
371
345
333
312
326
304
311
324
317
307
317
311
332
303
321
329
313
337
316
314
336
306
314
314
309
327
312
318
348
339
349
340
321
316
295
315
307
293
321
301
384
533
482
272
207
244
300
299
306
304
305
328
301
313
330
311
342
321
332
357
339
357
369
371
388
383
394
397
376
376
333
320
320
302
307
312
293
315
304
307
327
310
315
326
314
331
301
300
321
302
314
312
311
324
288
308
309
301
322
312
311
331
315
349
344
343
361
320
329
310
306
326
303
308
360
442
576
387
226
249
284
301
316
319
325
317
330
338
330
342
325
326
345
334
337
358
347
375
376
374
386
371
382
365
350
352
315
304
324
302
301
301
306
318
300
325
321
308
352
312
317
319
304
329
321
311
331
323
323
326
306
330
313
318
335
320
332
332
337
342
323
351
360
345
350
318
318
339
299
309
315
319
400
520
505
288
209
278
285
305
314
306
330
334
320
340
331
341
343
322
350
353
356
383
360
381
394
391
402
374
386
383
348
358
313
300
318
293
302
312
303
331
315
312
321
318
326
324
309
335
300
310
324
307
324
310
311
327
311
327
318
304
333
307
324
333
322
343
330
349
365
338
348
343
309
336
314
315
332
333
378
504
539
347
225
260
303
319
338
321
339
350
348
350
336
349
373
359
368
385
387
396
380
401
427
398
422
429
416
435
373
365
365
335
347
331
330
350
331
345
338
334
349
332
340
345
321
322
325
328
320
303
323
332
313
332
318
331
359
342
364
347
316
321
295
301
304
296
309
322
428
540
354
230
220
257
300
282
306
324
310
325
317
325
332
320
330
329
333
355
345
358
373
363
380
370
374
376
354
353
334
304
311
293
290
297
291
310
294
304
321
297
306
319
296
311
298
306
313
307
314
312
312
327
324
325
331
338
367
343
352
348
303
316
311
306
325
301
336
418
552
442
256
220
274
294
324
324
318
350
321
330
344
325
344
333
338
364
340
367
365
358
391
369
377
391
374
384
365
335
331
304
307
310
294
317
300
312
326
308
338
317
324
340
313
318
323
310
335
319
318
322
309
334
331
325
340
329
347
367
350
367
339
329
343
304
301
316
295
338
388
541
471
278
241
250
299
342
317
343
350
337
352
325
349
358
332
360
352
353
376
362
364
362
370
397
379
382
397
362
344
323
299
313
291
303
311
301
324
322
291
317
303
320
318
300
320
313
317
313
292
312
307
311
330
318
343
373
325
339
302
299
305
290
306
300
300
329
366
531
450
231
219
235
287
313
293
307
307
308
331
309
320
332
326
355
325
338
353
346
374
376
375
400
378
381
385
360
343
330
316
306
276
301
305
297
307
296
308
329
289
320
312
309
324
298
309
325
293
314
310
321
327
323
339
339
345
351
333
331
321
309
322
315
313
319
323
409
562
453
273
223
271
315
303
331
317
316
332
320
338
340
336
352
334
354
370
352
381
370
375
394
380
403
397
388
380
338
319
325
299
308
313
307
327
301
314
327
312
340
322
324
333
320
333
322
316
323
315
317
326
311
337
331
316
323
311
337
336
332
371
354
365
366
322
329
306
317
328
308
325
361
464
581
370
203
249
276
320
315
310
333
318
330
331
304
335
323
338
356
337
355
364
371
376
355
380
390
376
403
371
357
347
317
310
306
294
322
292
307
314
305
328
309
306
332
304
315
314
307
324
299
314
317
302
328
307
299
323
302
317
319
320
334
314
313
331
315
334
333
321
339
331
353
342
344
367
363
350
360
330
335
327
320
320
300
347
449
574
477
240
231
287
303
320
328
321
340
318
337
338
325
340
336
331
355
340
363
366
375
381
368
387
392
377
393
372
356
352
304
312
308
302
327
310
316
334
303
321
329
313
324
310
322
328
317
328
309
313
333
309
328
318
310
334
313
323
316
310
328
309
318
328
312
324
325
304
318
304
308
326
311
340
340
356
359
321
342
328
309
317
299
316
337
314
392
539
478
275
212
271
313
315
333
296
313
332
314
338
330
330
354
324
331
345
348
365
359
361
385
354
383
385
371
388
358
342
335
312
318
317
315
330
309
333
330
320
328
309
309
321
298
311
310
284
296
281
293
294
283
299
282
289
302
284
301
298
299
318
312
283
297
299
324
316
314
341
335
346
347
341
369
350
352
342
321
336
327
321
331
333
439
572
434
268
229
278
329
320
321
322
329
337
325
336
334
322
342
338
344
350
350
344
350
357
381
366
377
387
369
376
337
325
323
287
308
302
286
308
299
306
313
298
320
306
302
320
298
316
315
325
319
273
295
316
301
323
311
308
332
296
313
318
311
330
319
324
332
317
332
334
334
361
355
373
363
344
345
318
331
332
317
339
323
356
484
536
355
257
264
320
333
316
348
331
356
368
353
375
350
368
392
377
400
395
397
420
394
413
419
399
418
405
415
412
358
360
339
325
342
318
340
348
327
347
341
322
340
328
344
340
334
355
326
329
333
322
334
320
331
354
336
349
365
350
360
333
321
330
308
322
312
314
337
342
510
492
286
240
235
278
320
317
322
294
307
324
308
327
340
325
342
329
329
345
342
359
362
358
386
370
370
380
338
337
303
293
312
291
312
309
301
313
287
300
316
299
326
317
323
332
290
317
307
302
323
317
326
351
329
360
340
323
337
307
312
316
303
320
303
317
361
464
513
312
228
260
279
317
308
307
326
308
318
341
320
335
340
342
362
330
351
367
353
377
375
379
395
372
392
370
352
340
293
304
320
295
320
321
313
318
305
311
321
310
329
311
318
331
297
327
318
304
331
313
334
353
345
362
345
336
332
299
323
321
307
324
306
367
494
531
353
237
245
293
297
325
325
315
338
324
334
332
326
344
331
329
354
342
357
370
369
385
365
371
391
360
373
343
323
330
290
300
301
292
317
303
313
322
301
319
324
317
335
305
323
325
303
328
311
315
328
314
327
342
319
350
344
349
355
335
330
307
310
330
302
302
325
363
518
523
322
229
251
298
304
308
329
310
330
335
329
342
333
336
351
321
339
353
348
373
357
370
387
377
377
370
357
353
309
319
306
296
311
287
304
310
291
310
308
306
335
307
320
326
311
321
306
303
325
302
328
324
310
324
298
317
325
307
337
316
318
351
331
359
358
342
366
325
318
322
308
322
309
314
362
454
570
394
210
252
275
304
322
304
324
327
333
345
336
324
342
330
360
333
349
381
370
375
382
378
399
378
397
387
359
360
318
315
338
305
330
328
314
334
319
338
341
320
348
339
338
351
330
338
350
335
349
333
334
341
326
333
329
327
346
321
344
346
337
363
344
338
333
302
327
306
299
312
299
365
521
504
310
204
242
302
285
311
327
309
326
315
332
342
325
338
337
341
357
338
359
367
361
385
374
384
396
375
375
336
329
322
295
310
308
304
320
301
304
314
306
318
320
303
329
306
312
327
299
310
315
303
326
303
320
320
312
326
309
319
320
318
347
331
346
377
339
349
325
306
325
302
308
321
303
359
468
534
372
214
232
282
295
328
305
322
332
318
326
322
325
345
326
348
354
342
370
352
362
383
362
390
390
384
398
350
327
333
299
310
294
303
323
300
315
320
316
333
303
318
326
304
323
317
309
325
312
316
315
315
320
302
318
329
313
325
322
316
335
315
331
335
333
358
339
348
375
348
339
327
321
336
310
321
337
335
427
565
455
266
226
286
317
319
341
328
324
333
323
345
336
336
371
338
348
363
343
372
365
375
399
382
402
393
376
389
335
324
323
300
323
310
303
332
295
311
309
304
329
312
318
330
315
316
317
312
320
299
318
321
306
329
311
315
324
313
333
313
309
329
311
324
329
308
345
324
326
341
344
348
349
332
334
307
324
305
296
317
322
404
572
453
242
217
253
302
296
304
325
314
324
319
332
325
319
342
335
338
355
350
360
379
356
388
392
376
406
367
374
389
325
319
290
296
321
300
320
316
311
332
310
328
336
324
332
313
302
329
313
321
329
324
333
318
311
319
310
326
311
327
337
304
324
331
327
354
339
354
347
302
313
316
308
330
305
329
381
519
500
283
230
257
269
322
329
320
324
303
316
328
328
337
340
339
356
324
349
362
365
392
378
389
394
369
388
370
350
344
305
324
305
283
311
296
295
326
312
319
314
300
322
309
323
320
303
332
307
303
327
300
304
309
300
321
309
322
326
320
334
316
307
315
287
297
300
289
288
289
358
516
481
297
207
230
293
289
311
315
309
335
322
326
343
327
342
330
337
360
347
364
379
371
391
370
377
384
364
368
356
330
333
310
305
313
301
310
308
316
339
322
334
319
317
337
321
322
337
320
342
327
318
329
314
326
333
328
353
338
342
345
352
364
365
358
346
320
329
314
317
329
312
365
483
557
396
242
231
299
311
312
329
323
355
331
330
346
341
351
346
333
365
359
359
377
371
395
387
388
399
374
381
366
327
340
310
307
303
296
317
298
304
324
301
324
313
311
320
311
315
335
296
310
324
303
313
307
310
322
304
324
319
302
325
299
320
319
324
350
331
363
359
341
339
321
312
323
307
319
325
317
413
525
506
287
216
265
292
311
338
318
329
331
326
342
333
338
350
338
362
371
341
375
361
382
399
380
399
401
385
388
349
336
321
314
315
293
300
319
294
324
322
311
320
307
318
328
313
315
307
323
314
302
320
328
308
336
297
312
319
305
334
320
320
332
318
333
325
321
356
348
349
354
328
328
326
307
311
298
319
336
415
573
454
249
227
265
315
308
312
330
325
327
335
322
342
330
346
352
332
351
355
358
395
358
381
401
389
394
380
365
364
321
326
313
303
322
296
308
317
305
328
315
317
335
314
332
323
310
332
301
311
331
307
325
312
325
335
302
318
328
305
334
319
318
335
333
336
338
341
380
336
338
338
315
324
313
310
329
306
387
537
497
282
212
250
305
299
320
315
320
337
306
321
337
326
349
339
338
358
350
361
354
360
397
365
385
390
379
381
342
332
323
294
299
292
296
311
285
312
317
304
327
312
305
333
302
318
318
307
328
302
316
319
305
321
317
321
335
294
316
323
310
324
318
340
348
329
366
349
340
335
307
314
321
312
334
300
328
424
542
451
246
219
284
304
323
324
298
338
320
326
339
329
338
339
345
352
321
358
370
361
388
378
379
403
384
392
377
340
348
305
304
312
289
310
310
302
323
305
310
327
307
320
310
296
323
297
312
299
301
319
304
313
311
296
314
300
306
326
311
316
322
312
340
315
323
343
346
365
353
346
343
301
309
322
309
331
335
428
575
452
264
230
270
327
312
330
339
326
349
340
327
346
338
343
353
350
368
360
367
381
372
389
381
386
418
378
375
369
324
329
296
298
308
301
316
315
313
323
310
334
318
298
322
314
319
328
311
323
325
303
322
297
312
320
309
320
316
324
328
302
343
335
331
366
348
351
341
300
317
315
304
329
308
351
434
553
419
214
228
287
299
317
320
315
341
321
333
339
325
341
329
344
360
348
369
373
364
388
376
393
398
393
403
359
356
357
312
317
321
330
332
313
346
359
339
351
357
342
362
348
356
363
356
356
338
353
361
340
361
363
361
394
382
393
377
344
338
325
329
338
321
335
346
394
561
420
269
234
239
311
332
310
324
301
314
328
312
330
318
342
347
318
348
329
341
370
355
370
371
363
380
370
345
342
301
300
294
283
299
285
302
307
303
330
302
284
308
294
315
312
311
323
296
305
317
306
324
325
345
359
317
341
303
285
310
295
300
313
300
362
472
505
321
210
246
287
303
334
303
320
334
316
336
335
324
352
332
340
343
348
383
358
371
392
385
403
389
369
376
341
330
322
297
317
298
302
313
307
312
312
313
334
304
328
332
315
330
312
313
329
317
331
333
341
376
341
345
347
308
316
311
309
324
309
319
344
427
576
385
226
249
273
311
317
321
328
312
330
336
322
361
331
332
348
338
364
370
365
393
384
391
394
385
401
368
356
350
305
309
305
291
319
296
303
311
306
319
308
310
332
316
317
311
309
320
299
306
319
287
313
317
296
325
320
328
338
338
344
339
325
326
288
312
308
299
322
305
360
506
517
309
191
242
307
299
314
324
302
329
316
330
344
328
347
330
338
356
360
367
364
378
402
375
383
405
376
379
344
317
324
297
306
294
287
308
296
303
322
304
314
322
300
317
304
309
328
313
332
309
312
337
295
317
314
315
333
307
311
332
322
316
318
319
338
328
337
361
351
364
331
315
329
309
315
313
310
354
383
544
498
288
245
258
282
336
324
336
339
327
359
341
346
357
353
377
349
371
382
365
384
392
394
415
377
401
400
368
371
332
318
323
305
322
312
306
334
309
321
336
317
336
324
329
344
315
337
330
313
323
310
322
324
321
340
329
332
348
335
349
350
336
328
311
311
329
298
320
306
331
450
544
388
255
226
286
307
323
330
310
332
328
324
351
330
337
353
344
360
346
353
377
366
378
376
371
394
374
364
356
305
307
302
290
301
290
297
301
296
303
295
309
323
312
326
325
305
323
306
303
316
312
324
320
327
323
307
324
331
336
368
346
350
362
303
303
313
306
317
300
323
389
517
556
289
209
260
269
319
320
308
328
326
332
331
317
345
336
340
358
341
372
378
369
380
382
394
406
394
405
361
340
348
297
303
307
289
310
306
312
310
302
311
306
310
327
316
323
325
308
321
304
306
327
306
331
316
307
321
300
320
315
313
333
320
315
340
326
333
347
352
363
337
332
333
302
326
310
309
327
332
445
601
448
233
207
272
308
292
318
312
318
330
314
330
319
323
340
325
334
354
344
371
385
362
386
378
382
391
374
372
331
320
330
279
307
292
288
314
298
308
322
313
312
318
310
321
301
319
319
302
324
312
313
311
302
308
308
304
327
314
322
324
317
318
308
321
330
316
332
326
324
346
320
324
339
338
349
344
355
371
348
356
330
316
336
317
323
338
341
464
596
473
249
225
280
311
318
339
316
333
341
335
354
329
332
351
338
347
362
360
383
371
383
405
375
404
399
388
401
344
337
323
300
314
298
300
327
299
308
314
310
318
306
316
333
310
332
322
314
324
306
330
318
303
334
303
309
328
318
330
315
320
335
303
324
322
315
336
323
327
332
323
330
325
323
352
328
346
368
363
352
332
331
326
300
323
327
312
353
396
538
529
269
216
253
289
331
313
331
322
324
334
312
333
347
325
351
332
342
367
356
362
385
384
402
381
410
398
372
382
338
318
331
297
310
313
294
316
306
325
329
311
343
323
326
348
327
343
346
337
349
338
324
350
339
341
339
343
354
336
346
359
340
347
340
346
350
334
363
361
358
387
368
365
352
320
337
321
316
344
312
344
433
563
450
244
236
265
302
317
320
322
331
318
333
331
319
343
337
338
353
339
355
370
358
380
362
383
388
374
385
353
336
331
300
294
290
269
293
279
283
299
290
311
305
296
302
291
305
300
290
309
297
301
313
305
287
286
294
316
290
306
312
296
320
310
321
334
314
350
333
314
325
295
292
308
290
306
294
306
372
517
483
254
196
247
262
298
314
289
321
327
315
324
312
334
342
340
350
343
352
379
360
381
380
394
410
396
402
387
366
360
331
304
328
310
322
317
321
337
315
333
343
309
340
324
322
348
321
334
336
331
339
316
334
338
326
348
329
331
352
325
339
349
328
354
345
365
378
349
347
335
321
322
309
322
328
320
407
541
501
277
198
253
288
298
329
303
317
321
316
326
318
325
340
320
341
349
336
365
341
359
375
366
385
381
375
379
341
329
306
288
304
288
298
305
298
318
296
316
323
303
320
326
314
333
309
306
325
316
326
324
326
321
318
320
330
316
338
319
321
334
321
337
355
333
367
339
366
358
332
339
324
321
337
311
327
354
406
579
470
256
235
264
319
308
314
328
317
332
339
330
348
326
335
352
327
352
357
355
374
365
385
403
386
403
367
377
358
328
321
312
294
319
295
307
329
313
326
322
320
331
314
333
334
320
344
325
322
335
313
329
326
320
339
310
321
333
320
338
320
327
329
332
345
335
335
356
354
368
361
326
334
315
318
323
293
316
344
432
571
371
220
230
246
301
299
312
327
297
319
304
308
333
310
329
326
331
343
342
350
372
360
375
379
385
396
361
364
359
316
322
300
294
317
292
300
315
298
319
301
319
328
303
322
301
301
323
303
317
313
306
324
306
310
327
308
325
321
317
340
320
326
356
338
353
368
358
361
336
335
328
322
343
320
319
359
433
566
394
246
257
291
327
329
332
355
341
353
364
350
374
358
351
380
365
378
383
369
406
388
400
405
388
423
411
396
369
338
327
327
307
327
320
316
321
322
327
334
330
349
314
328
342
319
333
335
327
342
310
349
341
336
386
367
367
359
322
344
326
329
359
330
344
390
514
527
316
236
244
280
304
307
309
332
328
327
338
325
333
326
324
341
332
351
347
344
361
348
352
360
342
346
320
307
299
267
287
263
271
283
256
271
282
273
304
276
273
295
286
293
284
284
302
290
310
326
315
348
344
